RED IR
107825 107873 
156950 156989 
199565 206122 
201506 255303 
201516 263878 
201522 263934 
201509 263890 
201516 263854 
201522 263854 
201507 263859 
201506 263812 
201497 263833 
201511 263862 
201511 263875 
201508 263845 
201518 263862 
201515 263874 
201522 263941 
201513 263900 
201516 263887 
201517 263869 
201528 263853 
201517 263909 
201521 263888 
201519 263862 
201507 263900 
201509 263880 
201516 263908 
201518 263899 
201518 263910 
201528 263936 
201542 263976 
201524 263983 
201555 264004 
201564 263983 
201572 264029 
201560 264007 
201570 264057 
201542 264097 
201594 264089 
201590 264095 
201611 264143 
201581 264149 
201595 264155 
201601 264192 
201619 264204 
201587 264215 
201633 264230 
201617 264230 
201635 264261 
201643 264258 
201646 264294 
201637 264285 
201650 264316 
201651 264307 
201682 264342 
201669 264339 
201674 264367 
201665 264378 
201712 264397 
201682 264429 
201697 264421 
201700 264380 
201726 264433 
201713 264444 
201715 264498 
201713 264468 
201723 264487 
201728 264527 
201749 264521 
201720 264516 
201698 264465 
201668 264422 
201683 264370 
201647 264266 
201625 264206 
201605 264081 
201588 264020 
201560 264005 
201544 263934 
201504 263911 
201535 263905 
201515 263888 
201511 263868 
201517 263807 
201503 263824 
201500 263797 
201493 263825 
201510 263791 
201496 263812 
201473 263811 
201488 263777 
201506 263738 
201486 263811 
201498 263797 
201497 263822 
201494 263780 
201494 263851 
201495 263804 
201523 263826 
201509 263878 
201506 263848 
201508 263872 
201479 263881 
201486 263866 
201501 263857 
201516 263863 
201538 263860 
201521 263918 
201515 263907 
201521 263915 
201529 263906 
201534 263964 
201545 263944 
201540 263994 
201575 263974 
201557 264018 
201567 264012 
201544 264053 
201583 264054 
201557 264103 
201610 264076 
201587 264124 
201589 264117 
201598 264152 
201604 264133 
201610 264207 
201603 264190 
201616 264258 
201640 264224 
201618 264266 
201636 264267 
201619 264296 
201667 264279 
201654 264331 
201687 264296 
201659 264345 
201660 264352 
201651 264377 
201689 264377 
201668 264405 
201696 264372 
201698 264407 
201691 264383 
201684 264433 
201707 264437 
201709 264465 
201710 264468 
201731 264499 
201728 264498 
201730 264503 
201747 264519 
201708 264554 
201741 264504 
201726 264437 
201704 264393 
201685 264366 
201676 264252 
201642 264210 
201630 264140 
201571 264049 
201569 263996 
201546 263978 
201534 263971 
201528 263945 
201543 263901 
201516 263931 
201522 263894 
201524 263917 
201510 263889 
201531 263882 
201492 263827 
201470 263856 
201505 263824 
201506 263886 
201492 263830 
201503 263845 
201507 263877 
201523 263890 
201532 263894 
201512 263932 
201515 263890 
201521 263897 
201532 263936 
201532 263881 
201517 263886 
201538 263926 
201524 263900 
201519 263902 
201513 263899 
201536 263924 
201535 263949 
201553 263928 
201539 263949 
201551 263966 
201565 263972 
201557 264022 
201557 263997 
201551 263999 
201578 264020 
201569 264045 
201568 264075 
201581 264121 
201582 264115 
201602 264137 
201608 264158 
201615 264124 
201606 264172 
201611 264171 
201603 264217 
201613 264197 
201635 264224 
201632 264212 
201646 264252 
201642 264267 
201628 264307 
201661 264266 
201655 264300 
201666 264330 
201673 264347 
201672 264329 
201674 264366 
201660 264372 
201684 264382 
201675 264357 
201704 264429 
201693 264386 
201699 264421 
201691 264420 
201685 264462 
201729 264463 
201707 264470 
201709 264499 
201724 264491 
201722 264489 
201716 264507 
201712 264446 
201699 264452 
201679 264349 
201662 264297 
201647 264176 
201609 264150 
201622 264045 
201576 264036 
201560 263967 
201536 263967 
201566 263904 
201519 263934 
201525 263903 
201523 263905 
201506 263868 
201543 263871 
201533 263860 
201515 263894 
201530 263842 
201485 263857 
201491 263818 
201482 263867 
201495 263853 
201506 263899 
201536 263899 
201511 263924 
201520 263906 
201497 263934 
201517 263887 
201542 263922 
201528 263885 
201531 263902 
201523 263905 
201501 263941 
201515 263937 
201527 263895 
201519 263909 
201526 263932 
201528 263940 
201548 263968 
201551 263966 
201546 264007 
201550 263966 
201546 264010 
201556 263995 
201571 264035 
201560 264049 
201556 264080 
201562 264069 
201598 264067 
201566 264065 
201589 264118 
201583 264127 
201615 264157 
201595 264177 
201638 264186 
201627 264199 
201637 264209 
201607 264220 
201637 264257 
201633 264262 
201640 264271 
201638 264256 
201679 264296 
201646 264296 
201674 264331 
201649 264307 
201689 264362 
201665 264340 
201694 264387 
201693 264357 
201695 264446 
201658 264432 
201687 264417 
201676 264424 
201712 264461 
201689 264464 
201721 264497 
201699 264473 
201754 264486 
201701 264499 
201724 264507 
201709 264525 
201723 264541 
201704 264505 
201725 264459 
201652 264385 
201685 264334 
201641 264214 
201620 264095 
201567 264076 
201590 264044 
201538 263966 
201576 263939 
201516 263902 
201538 263911 
201488 263892 
201514 263896 
201476 263871 
201503 263855 
201471 263835 
201493 263836 
201465 263798 
201473 263814 
201452 263797 
201480 263810 
201464 263835 
201508 263843 
201477 263859 
201512 263841 
201464 263826 
201525 263897 
201501 263845 
201506 263886 
201485 263878 
201518 263900 
201471 263834 
201520 263859 
201462 263871 
201512 263891 
201476 263891 
201520 263893 
201474 263865 
201542 263940 
201468 263881 
201518 263950 
201512 263930 
201556 263921 
201512 264010 
201571 264025 
201506 264017 
201556 264013 
201540 264035 
201582 264039 
201552 264067 
201589 264100 
201566 264093 
201595 264113 
201552 264115 
201611 264185 
201572 264187 
201620 264167 
201595 264212 
201635 264197 
201610 264209 
201629 264216 
201591 264244 
201647 264276 
201611 264286 
201672 264314 
201617 264294 
201670 264341 
201644 264327 
201669 264360 
201641 264373 
201665 264364 
201665 264386 
201675 264437 
201653 264442 
201692 264424 
201673 264423 
201705 264449 
201674 264487 
201694 264454 
201681 264534 
201716 264508 
201670 264524 
201707 264525 
201685 264543 
201713 264565 
201692 264566 
201751 264566 
201716 264565 
201742 264510 
201694 264482 
201709 264399 
201655 264375 
201652 264239 
201587 264186 
201609 264121 
201562 264064 
201548 264003 
201503 263994 
201523 263920 
201502 263914 
201524 263890 
201491 263894 
201516 263891 
201478 263870 
201483 263860 
201483 263866 
201484 263861 
201483 263850 
201483 263763 
201460 263843 
201486 263848 
201471 263874 
201482 263891 
201472 263900 
201507 263887 
201485 263899 
201492 263907 
201487 263904 
201499 263913 
201484 263897 
201521 263916 
201490 263897 
201480 263912 
201503 263935 
201502 263868 
201508 263946 
201506 263919 
201516 263954 
201541 263931 
201537 263947 
201533 263974 
201533 263999 
201516 264001 
201536 264014 
201552 264014 
201541 264024 
201560 264072 
201547 264082 
201563 264101 
201551 264119 
201581 264150 
201582 264164 
201583 264169 
201602 264145 
201585 264201 
201593 264212 
201608 264206 
201593 264257 
201573 264259 
201640 264279 
201617 264314 
201611 264331 
201625 264299 
201627 264335 
201636 264353 
201655 264332 
201630 264358 
201652 264373 
201641 264427 
201666 264420 
201650 264402 
201683 264446 
201675 264458 
201676 264457 
201664 264474 
201692 264479 
201679 264473 
201709 264522 
201682 264496 
201731 264545 
201668 264531 
201732 264558 
201693 264552 
201723 264571 
201708 264596 
201729 264602 
201736 264617 
201754 264619 
201725 264584 
201730 264562 
201692 264505 
201689 264432 
201640 264355 
201644 264284 
201593 264190 
201585 264175 
201563 264103 
201563 264030 
201540 264041 
201562 263993 
201508 264004 
201529 264012 
201511 264041 
201536 263946 
201509 263971 
201502 263971 
201489 263953 
201505 263948 
201479 263990 
201514 263918 
201494 263966 
201526 263968 
201502 263969 
201526 263983 
201505 264010 
201538 263991 
201512 264017 
201534 263977 
201485 264017 
201553 263952 
201519 263987 
201545 263978 
201501 263997 
201534 263964 
201498 263998 
201549 263975 
201523 264000 
201534 264026 
201519 264070 
201557 264032 
201538 264092 
201567 264090 
201521 264111 
201565 264087 
201548 264151 
201584 264160 
201577 264198 
201601 264160 
201582 264186 
201584 264182 
201568 264185 
201625 264205 
201593 264250 
201608 264250 
201594 264275 
201627 264270 
201601 264332 
201656 264281 
201633 264334 
201638 264347 
201620 264386 
201639 264345 
201637 264410 
201659 264347 
201639 264385 
201674 264381 
201661 264453 
201673 264404 
201670 264472 
201660 264443 
201687 264508 
201682 264483 
201652 264521 
201692 264473 
201699 264529 
201693 264531 
201676 264540 
201718 264517 
201702 264565 
201714 264569 
201693 264609 
201723 264560 
201726 264563 
201703 264491 
201681 264502 
201662 264390 
201647 264375 
201644 264263 
201607 264253 
201591 264123 
201550 264134 
201549 264030 
201532 264080 
201561 263988 
201537 264043 
201541 263986 
201531 263999 
201507 263973 
201514 264028 
201518 263959 
201510 263975 
201520 263930 
201491 263944 
201507 263936 
201499 263953 
201483 263949 
201513 263965 
201510 263956 
201506 264013 
201528 263992 
201510 263995 
201512 263995 
201521 264012 
201513 263998 
201519 264009 
201516 263988 
201530 264009 
201520 263967 
201519 264018 
201527 264031 
201503 264014 
201550 264013 
201545 264059 
201529 264041 
201550 264086 
201544 264076 
201556 264122 
201542 264122 
201570 264103 
201544 264191 
201571 264201 
201552 264189 
201578 264182 
201573 264218 
201596 264236 
201566 264243 
201623 264254 
201582 264288 
201618 264295 
201595 264310 
201648 264321 
201587 264315 
201625 264351 
201591 264378 
201651 264374 
201634 264384 
201654 264414 
201628 264364 
201683 264448 
201637 264423 
201689 264451 
201632 264462 
201665 264474 
201643 264477 
201671 264469 
201644 264502 
201697 264527 
201632 264521 
201724 264553 
201662 264536 
201716 264527 
201666 264593 
201730 264576 
201667 264607 
201739 264571 
201689 264573 
201747 264576 
201678 264526 
201718 264465 
201653 264428 
201641 264346 
201596 264248 
201614 264234 
201558 264133 
201570 264084 
201487 264072 
201565 264032 
201504 264036 
201555 264011 
201501 263982 
201562 263966 
201481 263960 
201515 263948 
201452 263942 
201512 263935 
201456 263938 
201512 263933 
201446 263928 
201509 263956 
201470 263997 
201514 263947 
201473 263957 
201534 263963 
201479 264005 
201514 263970 
201482 264008 
201550 263988 
201475 264026 
201539 263968 
201490 263984 
201507 263991 
201470 264027 
201548 263993 
201485 264034 
201542 264018 
201474 264085 
201534 264003 
201499 264091 
201578 264092 
201502 264117 
201565 264111 
201513 264145 
201612 264129 
201535 264162 
201599 264174 
201549 264199 
201585 264191 
201538 264213 
201607 264231 
201572 264258 
201605 264230 
201569 264259 
201621 264266 
201578 264340 
201620 264316 
201605 264345 
201636 264349 
201614 264374 
201653 264346 
201625 264403 
201662 264383 
201626 264423 
201668 264440 
201632 264436 
201662 264428 
201664 264476 
201685 264447 
201634 264498 
201700 264522 
201673 264524 
201692 264476 
201665 264544 
201686 264539 
201651 264596 
201707 264532 
201686 264624 
201720 264585 
201678 264581 
201705 264542 
201666 264512 
201691 264432 
201647 264446 
201628 264318 
201599 264282 
201613 264185 
201554 264164 
201544 264062 
201545 264036 
201516 264006 
201517 264068 
201518 263989 
201501 264021 
201511 263982 
201508 264003 
201489 263938 
201514 263976 
201489 263955 
201473 263935 
201488 263945 
201481 263969 
201481 263948 
201497 263990 
201467 263943 
201500 263984 
201494 263983 
201529 264003 
201486 263999 
201526 264012 
201494 263966 
201542 264017 
201490 263961 
201527 264021 
201476 263968 
201536 264010 
201491 263968 
201513 264027 
201467 264013 
201549 264006 
201477 264027 
201524 264063 
201491 264043 
201550 264120 
201487 264075 
201565 264112 
201516 264124 
201586 264132 
201511 264125 
201601 264153 
201533 264173 
201584 264225 
201537 264194 
201613 264223 
201546 264212 
201614 264247 
201563 264257 
201611 264273 
201560 264272 
201633 264296 
201580 264312 
201638 264330 
201560 264322 
201650 264402 
201589 264382 
201639 264415 
201606 264388 
201648 264398 
201608 264400 
201682 264429 
201600 264380 
201664 264456 
201614 264454 
201688 264483 
201614 264463 
201693 264524 
201619 264493 
201681 264549 
201647 264533 
201693 264544 
201641 264570 
201702 264553 
201630 264466 
201690 264459 
201579 264417 
201667 264342 
201566 264273 
201604 264263 
201516 264168 
201576 264088 
201484 264061 
201539 264030 
201489 263991 
201540 264008 
201461 263955 
201519 263958 
201453 263974 
201508 263990 
201464 263950 
201526 263971 
201427 263903 
201504 263948 
201459 263949 
201494 263966 
201449 263941 
201519 264003 
201465 263961 
201539 263973 
201445 263974 
201508 263986 
201437 264018 
201517 263988 
201445 263984 
201503 264006 
201438 263996 
201508 264024 
201471 263993 
201521 264014 
201477 264000 
201542 264007 
201466 264034 
201543 263997 
201490 264051 
201544 264054 
201500 264041 
201546 264078 
201496 264072 
201550 264103 
201487 264104 
201569 264140 
201500 264135 
201570 264133 
201526 264198 
201574 264167 
201529 264179 
201584 264204 
201558 264236 
201578 264253 
201567 264255 
201609 264242 
201555 264272 
201625 264308 
201576 264296 
201616 264306 
201586 264340 
201647 264322 
201612 264334 
201637 264341 
201594 264392 
201630 264359 
201613 264420 
201652 264401 
201628 264400 
201655 264398 
201604 264465 
201646 264417 
201637 264470 
201651 264447 
201642 264493 
201631 264408 
201647 264448 
201609 264341 
201595 264319 
201577 264214 
201560 264173 
201536 264096 
201520 264079 
201501 263968 
201470 263963 
201492 263917 
201457 263980 
201464 263882 
201458 263951 
201444 263856 
201442 263875 
201455 263866 
201445 263890 
201445 263822 
201437 263875 
201456 263811 
201441 263882 
201470 263818 
201449 263904 
201448 263843 
201455 263925 
201452 263861 
201450 263874 
201442 263846 
201421 263929 
201449 263858 
201440 263920 
201420 263840 
201436 263911 
201459 263854 
201447 263944 
201444 263906 
201454 263934 
201463 263867 
201436 263975 
201431 263913 
201464 264025 
201471 263959 
201472 264035 
201518 263981 
201502 264042 
201491 263981 
201487 264090 
201495 264060 
201510 264089 
201530 264102 
201518 264162 
201520 264068 
201533 264157 
201531 264112 
201529 264186 
201541 264151 
201541 264234 
201552 264194 
201543 264229 
201561 264206 
201575 264266 
201568 264238 
201563 264330 
201578 264272 
201587 264322 
201585 264247 
201576 264344 
201580 264310 
201595 264392 
201598 264332 
201605 264382 
201621 264389 
201613 264440 
201610 264413 
201586 264435 
201648 264413 
201621 264433 
201616 264423 
201611 264399 
201586 264334 
201593 264229 
201536 264148 
201517 264086 
201511 263999 
201459 263951 
201432 263926 
201441 263909 
201440 263847 
201433 263856 
201427 263836 
201411 263787 
201388 263805 
201399 263776 
201376 263780 
201390 263765 
201368 263734 
201366 263694 
201349 263690 
201367 263710 
201359 263732 
201383 263741 
201355 263766 
201373 263741 
201396 263771 
201385 263743 
201383 263799 
201375 263768 
201380 263773 
201389 263770 
201399 263751 
201398 263740 
201391 263803 
201378 263737 
201400 263826 
201394 263779 
201419 263832 
201401 263804 
201420 263870 
201408 263800 
201424 263887 
201443 263809 
201429 263935 
201448 263904 
201453 263947 
201456 263880 
201447 263962 
201468 263960 
201471 264015 
201490 263935 
201496 264015 
201492 263962 
201475 264064 
201485 264005 
201499 264111 
201500 264061 
201509 264125 
201512 264080 
201513 264146 
201509 264110 
201511 264179 
201532 264117 
201551 264188 
201539 264190 
201543 264240 
201541 264187 
201562 264275 
201577 264174 
201567 264294 
201534 264216 
201553 264321 
201558 264230 
201576 264331 
201573 264265 
201589 264355 
201572 264285 
201586 264381 
201587 264328 
201599 264369 
201584 264337 
201577 264345 
201578 264264 
201579 264222 
201533 264108 
201506 264100 
201466 263949 
201435 263939 
201409 263811 
201417 263823 
201396 263753 
201392 263788 
201395 263735 
201378 263760 
201389 263721 
201379 263719 
201368 263670 
201362 263686 
201350 263602 
201334 263659 
201341 263605 
201336 263638 
201353 263625 
201342 263668 
201355 263632 
201335 263667 
201363 263631 
201366 263679 
201349 263650 
201353 263700 
201356 263650 
201342 263665 
201350 263626 
201328 263660 
201342 263664 
201331 263689 
201331 263654 
201360 263729 
201357 263648 
201381 263727 
201359 263688 
201376 263745 
201383 263711 
201367 263756 
201388 263758 
201378 263795 
201403 263763 
201380 263821 
201429 263834 
201435 263823 
201422 263826 
201423 263876 
201439 263904 
201432 263902 
201439 263891 
201452 263950 
201404 263916 
201454 263919 
201460 263941 
201465 263975 
201473 263991 
201480 263992 
201480 264014 
201477 264007 
201463 264034 
201487 264043 
201483 264107 
201504 264149 
201504 264097 
201492 264095 
201506 264084 
201503 264075 
201501 264112 
201525 264149 
201507 264151 
201539 264153 
201536 264202 
201512 264207 
201568 264198 
201531 264216 
201540 264242 
201541 264260 
201568 264262 
201545 264230 
201576 264291 
201564 264248 
201548 264167 
201517 264112 
201518 264050 
201447 263923 
201418 263865 
201416 263790 
201400 263723 
201326 263691 
201356 263680 
201328 263647 
201331 263659 
201306 263637 
201347 263639 
201311 263634 
201322 263633 
201306 263573 
201314 263541 
201315 263563 
201303 263530 
201270 263531 
201317 263545 
201288 263500 
201305 263606 
201287 263541 
201320 263594 
201310 263606 
201321 263606 
201312 263563 
201324 263576 
201293 263586 
201303 263549 
201315 263574 
201323 263570 
201293 263596 
201303 263600 
201323 263594 
201327 263606 
201334 263611 
201344 263569 
201343 263606 
201360 263641 
201345 263643 
201356 263671 
201342 263711 
201390 263704 
201370 263724 
201374 263726 
201378 263777 
201397 263786 
201360 263794 
201386 263778 
201368 263790 
201390 263816 
201377 263841 
201440 263839 
201405 263884 
201445 263869 
201421 263889 
201452 263917 
201453 263878 
201428 263948 
201448 263991 
201474 264009 
201464 264009 
201463 264018 
201460 264008 
201475 264032 
201451 264047 
201468 264026 
201496 264064 
201490 264054 
201494 264084 
201502 264083 
201516 264104 
201512 264130 
201510 264138 
201537 264174 
201515 264168 
201530 264205 
201531 264197 
201524 264233 
201547 264251 
201527 264250 
201560 264253 
201542 264216 
201533 264181 
201536 264142 
201501 264100 
201479 263997 
201448 263945 
201442 263837 
201388 263733 
201372 263730 
201357 263666 
201333 263623 
201323 263637 
201297 263594 
201279 263562 
201287 263536 
201296 263556 
201275 263530 
201288 263460 
201253 263479 
201261 263432 
201254 263420 
201213 263425 
201260 263474 
201245 263457 
201251 263471 
201259 263467 
201276 263477 
201253 263487 
201284 263499 
201279 263554 
201280 263493 
201281 263486 
201288 263508 
201255 263507 
201288 263500 
201287 263505 
201306 263534 
201275 263522 
201290 263501 
201296 263538 
201291 263583 
201290 263606 
201313 263604 
201322 263612 
201306 263631 
201312 263631 
201345 263686 
201325 263672 
201364 263697 
201333 263697 
201359 263737 
201347 263749 
201394 263777 
201380 263802 
201394 263778 
201386 263856 
201415 263837 
201388 263868 
201425 263851 
201393 263911 
201445 263904 
201407 263905 
201435 263975 
201412 263952 
201443 264006 
201440 263984 
201428 263996 
201427 264008 
201460 264020 
201455 264034 
201486 264062 
201474 264063 
201499 264093 
201481 264060 
201500 264128 
201489 264122 
201495 264134 
201490 264196 
201535 264180 
201482 264202 
201509 264217 
201509 264248 
201536 264256 
201503 264254 
201544 264251 
201513 264269 
201545 264316 
201537 264279 
201553 264297 
201512 264258 
201516 264204 
201502 264112 
201449 264055 
201435 263958 
201425 263824 
201380 263808 
201349 263714 
201335 263709 
201329 263650 
201311 263611 
201318 263604 
201287 263573 
201306 263557 
201256 263545 
201294 263567 
201287 263529 
201276 263474 
201239 263512 
201277 263491 
201248 263483 
201284 263485 
201229 263515 
201256 263536 
201265 263528 
201295 263528 
201290 263581 
201287 263575 
201294 263537 
201276 263584 
201285 263546 
201296 263563 
201281 263578 
201295 263545 
201295 263579 
201285 263588 
201300 263575 
201281 263610 
201293 263617 
201315 263646 
201334 263664 
201320 263658 
201348 263666 
201333 263690 
201336 263723 
201363 263727 
201365 263746 
201343 263785 
201387 263766 
201371 263833 
201396 263789 
201363 263851 
201401 263863 
201389 263870 
201421 263888 
201396 263941 
201418 263925 
201412 263930 
201446 263985 
201414 264000 
201454 264008 
201416 263974 
201458 264046 
201434 264033 
201478 264078 
201435 264080 
201499 264085 
201475 264124 
201478 264103 
201462 264149 
201514 264151 
201463 264146 
201511 264165 
201471 264174 
201534 264196 
201481 264241 
201531 264224 
201506 264221 
201558 264261 
201514 264288 
201565 264303 
201503 264305 
201536 264323 
201523 264325 
201563 264338 
201518 264346 
201569 264372 
201522 264365 
201563 264337 
201522 264368 
201618 264388 
201511 264324 
201578 264321 
201482 264256 
201523 264195 
201445 264054 
201499 264012 
201405 263953 
201422 263878 
201348 263830 
201408 263800 
201330 263815 
201408 263778 
201334 263792 
201363 263732 
201325 263730 
201362 263719 
201331 263740 
201373 263673 
201293 263686 
201346 263704 
201286 263684 
201344 263711 
201272 263713 
201365 263718 
201324 263709 
201380 263766 
201305 263756 
201371 263724 
201301 263759 
201379 263732 
201323 263734 
201379 263710 
201328 263792 
201382 263773 
201300 263751 
201393 263767 
201328 263724 
201404 263813 
201352 263781 
201390 263789 
201334 263838 
201397 263802 
201354 263832 
201400 263820 
201365 263876 
201414 263866 
201383 263895 
201434 263937 
201372 263925 
201442 263944 
201404 263965 
201428 263978 
201400 264015 
201462 264018 
201410 264006 
201458 264051 
201435 264051 
201484 264057 
201443 264073 
201472 264096 
201426 264104 
201466 264073 
201453 264096 
201465 264147 
201457 264150 
201471 264162 
201480 264168 
201471 264171 
201486 264200 
201514 264201 
201488 264237 
201509 264268 
201482 264226 
201528 264230 
201516 264270 
201519 264292 
201517 264316 
201534 264286 
201519 264344 
201536 264337 
201557 264360 
201567 264354 
201568 264360 
201557 264381 
201535 264327 
201523 264290 
201508 264209 
201488 264135 
201468 264048 
201433 264026 
201423 263943 
201409 263870 
201392 263833 
201372 263844 
201384 263831 
201364 263802 
201348 263755 
201339 263755 
201347 263769 
201318 263730 
201343 263782 
201309 263751 
201359 263742 
201307 263723 
201341 263735 
201304 263731 
201365 263761 
201329 263735 
201326 263771 
201328 263742 
201352 263768 
201324 263785 
201388 263812 
201335 263790 
201377 263783 
201335 263747 
201361 263804 
201336 263765 
201390 263806 
201324 263775 
201379 263801 
201353 263806 
201391 263812 
201351 263828 
201394 263869 
201350 263868 
201409 263897 
201366 263871 
201407 263930 
201355 263930 
201429 263976 
201381 263935 
201427 263975 
201424 264001 
201433 264043 
201420 264029 
201434 264013 
201439 264054 
201480 264066 
201436 264096 
201459 264144 
201441 264093 
201468 264083 
201471 264157 
201517 264175 
201460 264180 
201485 264202 
201458 264197 
201478 264243 
201485 264222 
201534 264239 
201494 264279 
201529 264249 
201502 264246 
201525 264282 
201498 264327 
201535 264296 
201523 264323 
201518 264370 
201488 264364 
201585 264328 
201501 264392 
201540 264361 
201517 264423 
201586 264405 
201549 264423 
201570 264439 
201580 264464 
201572 264439 
201559 264386 
201542 264361 
201505 264278 
201516 264205 
201467 264132 
201453 264027 
201393 263982 
201393 263918 
201373 263886 
201376 263846 
201341 263850 
201362 263802 
201348 263809 
201370 263797 
201354 263773 
201352 263775 
201339 263752 
201361 263758 
201311 263738 
201350 263723 
201315 263760 
201333 263748 
201315 263763 
201324 263750 
201331 263792 
201364 263795 
201349 263778 
201360 263776 
201353 263794 
201351 263780 
201323 263803 
201347 263787 
201364 263813 
201342 263831 
201339 263796 
201346 263813 
201348 263844 
201357 263824 
201376 263847 
201355 263802 
201372 263898 
201374 263861 
201363 263920 
201360 263880 
201391 263914 
201381 263924 
201401 263951 
201379 263965 
201400 263980 
201446 263977 
201418 264021 
201429 264046 
201421 264052 
201437 264049 
201443 264108 
201444 264081 
201463 264130 
201446 264126 
201462 264131 
201443 264137 
201470 264167 
201475 264145 
201483 264215 
201488 264210 
201484 264284 
201470 264220 
201497 264275 
201509 264239 
201505 264294 
201518 264269 
201503 264298 
201514 264273 
201496 264361 
201480 264305 
201517 264354 
201523 264364 
201551 264407 
201546 264364 
201544 264415 
201530 264400 
201537 264438 
201536 264426 
201547 264457 
201539 264457 
201576 264484 
201560 264485 
201551 264500 
201575 264426 
201585 264488 
201517 264377 
201533 264358 
201509 264265 
201498 264244 
201446 264113 
201442 264071 
201391 263964 
201402 263979 
201375 263883 
201381 263895 
201365 263813 
201361 263867 
201349 263792 
201344 263841 
201339 263775 
201335 263824 
201328 263750 
201338 263782 
201323 263697 
201333 263786 
201316 263706 
201319 263752 
201282 263745 
201328 263759 
201289 263744 
201349 263792 
201333 263757 
201348 263821 
201322 263771 
201341 263825 
201326 263736 
201340 263807 
201331 263779 
201331 263799 
201336 263728 
201345 263820 
201340 263781 
201362 263841 
201323 263812 
201353 263889 
201339 263842 
201378 263879 
201351 263865 
201365 263934 
201379 263854 
201383 263945 
201359 263898 
201409 263986 
201380 263948 
201404 264029 
201379 263966 
201402 264044 
201406 264020 
201438 264094 
201438 264034 
201443 264120 
201438 264051 
201448 264115 
201440 264097 
201478 264142 
201439 264098 
201463 264178 
201441 264151 
201460 264206 
201441 264181 
201482 264241 
201469 264188 
201480 264269 
201464 264239 
201488 264311 
201473 264245 
201496 264309 
201494 264264 
201513 264329 
201471 264309 
201520 264381 
201493 264309 
201515 264400 
201517 264341 
201522 264417 
201516 264367 
201532 264446 
201528 264398 
201531 264472 
201503 264399 
201557 264497 
201533 264434 
201563 264497 
201562 264447 
201563 264520 
201524 264428 
201554 264464 
201530 264337 
201513 264314 
201476 264183 
201459 264183 
201406 264030 
201406 264044 
201399 263928 
201375 263984 
201365 263841 
201353 263917 
201361 263850 
201365 263945 
201328 263856 
201344 263891 
201354 263809 
201363 263884 
201324 263783 
201364 263834 
201311 263774 
201341 263854 
201324 263799 
201369 263858 
201340 263788 
201346 263861 
201319 263838 
201367 263919 
201362 263863 
201362 263903 
201331 263795 
201365 263866 
201340 263819 
201377 263881 
201342 263828 
201356 263874 
201342 263833 
201359 263939 
201345 263848 
201365 263931 
201350 263851 
201361 263957 
201351 263900 
201392 263984 
201361 263932 
201384 264018 
201361 263960 
201403 264022 
201377 263982 
201415 264069 
201394 264005 
201415 264118 
201393 264042 
201431 264101 
201417 264069 
201452 264119 
201417 264095 
201432 264149 
201406 264125 
201457 264226 
201448 264143 
201467 264222 
201463 264187 
201481 264256 
201434 264232 
201470 264251 
201446 264218 
201472 264322 
201447 264283 
201494 264334 
201438 264280 
201484 264353 
201471 264320 
201508 264357 
201489 264296 
201490 264378 
201481 264364 
201518 264419 
201486 264377 
201519 264451 
201510 264389 
201531 264487 
201510 264411 
201533 264476 
201518 264424 
201549 264487 
201525 264389 
201504 264390 
201460 264269 
201479 264231 
201423 264162 
201428 264086 
201389 263999 
201399 263962 
201365 263914 
201357 263936 
201355 263862 
201349 263939 
201332 263845 
201350 263874 
201327 263817 
201362 263846 
201304 263763 
201354 263847 
201305 263789 
201341 263828 
201281 263726 
201324 263801 
201303 263806 
201368 263854 
201319 263837 
201338 263860 
201323 263830 
201346 263853 
201325 263839 
201326 263890 
201296 263823 
201368 263871 
201321 263825 
201350 263877 
201308 263830 
201338 263875 
201326 263838 
201336 263908 
201330 263845 
201336 263943 
201334 263874 
201367 263943 
201329 263932 
201387 263942 
201344 263915 
201374 264012 
201367 264001 
201390 264035 
201375 264006 
201376 264061 
201374 264037 
201402 264127 
201390 264064 
201412 264116 
201418 264078 
201443 264145 
201429 264145 
201441 264146 
201421 264133 
201445 264238 
201424 264206 
201441 264237 
201436 264179 
201470 264252 
201445 264245 
201497 264301 
201457 264246 
201497 264316 
201460 264305 
201496 264340 
201467 264340 
201511 264385 
201463 264326 
201513 264380 
201462 264369 
201499 264389 
201498 264398 
201518 264452 
201494 264376 
201553 264464 
201515 264472 
201513 264497 
201506 264491 
201542 264500 
201534 264537 
201576 264545 
201527 264520 
201584 264504 
201522 264534 
201561 264473 
201518 264433 
201528 264348 
201490 264295 
201477 264286 
201427 264158 
201435 264084 
201390 264043 
201380 264023 
201359 263967 
201375 263912 
201353 263894 
201363 263889 
201344 263877 
201337 263867 
201323 263862 
201318 263832 
201286 263833 
201310 263777 
201282 263766 
201292 263763 
201275 263779 
201305 263793 
201281 263768 
201292 263773 
201302 263785 
201315 263830 
201297 263804 
201308 263810 
201304 263838 
201300 263793 
201298 263836 
201314 263833 
201301 263830 
201320 263837 
201275 263863 
201318 263858 
201292 263828 
201333 263854 
201304 263902 
201350 263891 
201331 263913 
201374 263881 
201340 263928 
201351 263891 
201341 263982 
201360 263950 
201339 263965 
201369 263982 
201355 264014 
201366 263969 
201349 264026 
201389 264032 
201373 264060 
201418 264080 
201397 264103 
201422 264111 
201395 264134 
201423 264151 
201411 264164 
201437 264171 
201412 264209 
201420 264183 
201424 264241 
201449 264238 
201408 264224 
201428 264240 
201437 264266 
201472 264276 
201443 264313 
201470 264307 
201447 264332 
201470 264353 
201449 264351 
201479 264364 
201465 264400 
201493 264336 
201473 264397 
201512 264371 
201488 264424 
201499 264432 
201508 264506 
201515 264446 
201486 264530 
201495 264493 
201479 264546 
201524 264497 
201504 264551 
201516 264504 
201515 264533 
201537 264487 
201508 264431 
201494 264407 
201456 264310 
201450 264216 
201401 264169 
201420 264085 
201372 264030 
201368 263961 
201357 263994 
201363 263966 
201324 263927 
201320 263860 
201316 263899 
201325 263889 
201283 263870 
201312 263855 
201293 263788 
201310 263800 
201270 263800 
201280 263792 
201278 263808 
201282 263815 
201288 263801 
201309 263853 
201297 263805 
201311 263852 
201298 263830 
201298 263869 
201309 263855 
201312 263870 
201333 263804 
201294 263807 
201284 263822 
201292 263860 
201296 263801 
201305 263873 
201294 263857 
201312 263874 
201302 263894 
201316 263899 
201295 263884 
201326 263927 
201332 263919 
201358 263960 
201338 263948 
201333 263973 
201337 263970 
201365 264010 
201347 264009 
201367 264026 
201344 264021 
201367 264063 
201364 264074 
201402 264106 
201387 264107 
201375 264149 
201384 264108 
201406 264137 
201392 264151 
201431 264179 
201377 264168 
201431 264208 
201419 264254 
201427 264215 
201392 264205 
201433 264256 
201434 264243 
201448 264255 
201438 264278 
201433 264295 
201443 264297 
201451 264329 
201460 264307 
201440 264347 
201463 264343 
201478 264379 
201468 264379 
201449 264413 
201456 264384 
201468 264381 
201475 264427 
201476 264446 
201470 264492 
201504 264455 
201495 264473 
201468 264444 
201483 264435 
201475 264387 
201460 264304 
201444 264257 
201414 264155 
201382 264126 
201380 264047 
201357 264009 
201333 263974 
201305 263911 
201330 263910 
201327 263890 
201290 263859 
201317 263856 
201331 263889 
201297 263879 
201293 263843 
201294 263841 
201289 263829 
201292 263826 
201279 263839 
201291 263852 
201282 263831 
201299 263909 
201283 263880 
201298 263880 
201345 263897 
201305 263888 
201300 263889 
201310 263902 
201304 263882 
201324 263910 
201277 263930 
201313 263898 
201303 263900 
201304 263857 
201291 263877 
201303 263902 
201333 263887 
201314 263922 
201323 263920 
201349 263960 
201347 263977 
201340 264002 
201322 263977 
201338 264001 
201342 264057 
201329 264010 
201368 264047 
201347 264032 
201366 264077 
201357 264099 
201390 264111 
201381 264138 
201391 264143 
201366 264175 
201388 264221 
201397 264201 
201406 264164 
201398 264216 
201406 264252 
201409 264275 
201428 264261 
201413 264249 
201441 264295 
201442 264282 
201428 264319 
201440 264353 
201436 264324 
201436 264320 
201429 264348 
201417 264374 
201460 264375 
201447 264393 
201472 264410 
201472 264421 
201486 264425 
201450 264461 
201512 264435 
201483 264425 
201491 264439 
201437 264340 
201453 264315 
201425 264251 
201425 264155 
201357 264064 
201368 264038 
201345 263961 
201329 263897 
201285 263879 
201309 263872 
201263 263885 
201307 263873 
201260 263862 
201293 263824 
201255 263807 
201282 263791 
201267 263769 
201255 263775 
201267 263845 
201252 263784 
201261 263802 
201274 263801 
201259 263805 
201287 263814 
201284 263860 
201285 263818 
201264 263843 
201286 263844 
201261 263849 
201294 263844 
201267 263853 
201289 263838 
201256 263859 
201314 263853 
201280 263885 
201296 263870 
201281 263856 
201278 263919 
201311 263915 
201306 263916 
201301 263912 
201316 263935 
201312 263988 
201332 263969 
201325 263980 
201357 263994 
201345 264009 
201378 264000 
201358 264042 
201358 264073 
201329 264060 
201373 264083 
201359 264082 
201394 264111 
201359 264155 
201380 264146 
201388 264156 
201416 264192 
201378 264198 
201407 264194 
201399 264204 
201420 264218 
201393 264250 
201425 264230 
201402 264249 
201448 264288 
201418 264305 
201448 264339 
201411 264304 
201431 264326 
201445 264370 
201454 264343 
201444 264366 
201476 264375 
201442 264404 
201457 264392 
201450 264436 
201471 264444 
201452 264447 
201482 264446 
201437 264368 
201457 264353 
201440 264311 
201416 264225 
201364 264117 
201360 264026 
201329 263995 
201323 263934 
201288 263932 
201285 263849 
201281 263815 
201280 263828 
201253 263825 
201260 263792 
201256 263782 
201235 263728 
201228 263775 
201255 263762 
201231 263741 
201232 263712 
201206 263696 
201197 263690 
201209 263740 
201241 263717 
201211 263775 
201244 263733 
201224 263760 
201232 263747 
201242 263804 
201247 263828 
201230 263778 
201274 263766 
201244 263766 
201238 263784 
201248 263811 
201258 263773 
201276 263832 
201241 263781 
201240 263795 
201255 263846 
201255 263848 
201268 263841 
201282 263881 
201271 263887 
201287 263888 
201296 263913 
201298 263915 
201307 263917 
201300 263971 
201303 263965 
201310 264016 
201289 263999 
201330 264009 
201310 264062 
201312 264037 
201333 264040 
201364 264111 
201348 264089 
201364 264087 
201352 264141 
201371 264173 
201373 264175 
201369 264196 
201362 264189 
201387 264210 
201389 264199 
201405 264261 
201405 264222 
201393 264245 
201401 264269 
201387 264299 
201405 264292 
201417 264299 
201407 264342 
201441 264379 
201413 264325 
201442 264381 
201447 264351 
201431 264387 
201425 264380 
201437 264413 
201415 264335 
201445 264353 
201406 264235 
201419 264182 
201356 264103 
201344 264031 
201279 263951 
201306 263926 
201267 263804 
201258 263817 
201244 263776 
201218 263772 
201218 263757 
201225 263738 
201213 263751 
201220 263734 
201212 263728 
201232 263688 
201200 263682 
201212 263662 
201193 263659 
201184 263672 
201195 263692 
201210 263693 
201187 263694 
201213 263719 
201194 263700 
201211 263724 
201200 263708 
201217 263728 
201208 263716 
201222 263718 
201176 263694 
201199 263707 
201207 263734 
201218 263762 
201195 263743 
201229 263790 
201220 263734 
201224 263741 
201212 263749 
201251 263788 
201234 263772 
201252 263821 
201232 263803 
201272 263839 
201245 263864 
201263 263863 
201234 263859 
201270 263905 
201256 263928 
201297 263959 
201251 263933 
201296 263980 
201304 263982 
201310 263991 
201292 264003 
201326 264049 
201302 264043 
201317 264020 
201307 264058 
201341 264073 
201308 264091 
201346 264104 
201332 264140 
201359 264176 
201349 264136 
201341 264169 
201331 264188 
201359 264165 
201321 264218 
201392 264218 
201345 264240 
201388 264237 
201359 264212 
201389 264251 
201368 264282 
201407 264287 
201374 264289 
201417 264313 
201378 264292 
201417 264317 
201412 264345 
201411 264360 
201389 264349 
201400 264288 
201358 264264 
201398 264169 
201328 264062 
201326 264062 
201281 263910 
201251 263874 
201211 263823 
201264 263789 
201190 263722 
201218 263729 
201180 263707 
201207 263688 
201155 263688 
201206 263696 
201197 263669 
201155 263687 
201148 263637 
201180 263647 
201147 263638 
201160 263627 
201153 263659 
201180 263664 
201140 263676 
201173 263680 
201164 263701 
201167 263664 
201158 263683 
201189 263676 
201176 263707 
201200 263690 
201156 263687 
201189 263697 
201172 263738 
201190 263691 
201177 263727 
201193 263723 
201174 263717 
201199 263716 
201198 263722 
201211 263732 
201201 263808 
201219 263760 
201205 263826 
201229 263805 
201209 263825 
201260 263842 
201212 263900 
201252 263892 
201249 263879 
201266 263894 
201255 263941 
201288 263939 
201251 263967 
201282 263950 
201288 263996 
201294 264012 
201276 264026 
201302 264001 
201299 264061 
201318 264058 
201325 264063 
201351 264050 
201327 264137 
201341 264139 
201316 264152 
201324 264165 
201342 264178 
201361 264148 
201334 264171 
201357 264176 
201343 264215 
201362 264233 
201358 264256 
201378 264242 
201369 264256 
201378 264262 
201369 264308 
201358 264293 
201385 264326 
201399 264272 
201343 264240 
201364 264206 
201332 264140 
201333 264076 
201257 263990 
201272 263858 
201210 263852 
201218 263757 
201160 263736 
201181 263702 
201162 263660 
201159 263682 
201128 263649 
201157 263619 
201149 263651 
201129 263577 
201112 263560 
201131 263563 
201096 263558 
201107 263527 
201106 263546 
201100 263523 
201105 263581 
201123 263553 
201105 263552 
201103 263578 
201126 263607 
201120 263606 
201145 263557 
201127 263547 
201143 263619 
201133 263589 
201130 263612 
201110 263590 
201122 263614 
201149 263594 
201147 263623 
201145 263588 
201149 263610 
201149 263664 
201141 263648 
201147 263695 
201160 263699 
201161 263716 
201166 263768 
201172 263729 
201191 263776 
201194 263749 
201198 263819 
201198 263827 
201224 263859 
201234 263885 
201233 263882 
201244 263856 
201246 263906 
201255 263922 
201259 263934 
201264 263984 
201240 263987 
201268 264009 
201277 264009 
201269 264031 
201298 264043 
201284 264026 
201292 264117 
201316 264055 
201312 264096 
201292 264094 
201298 264120 
201310 264118 
201315 264174 
201319 264165 
201353 264181 
201333 264164 
201338 264237 
201328 264217 
201377 264230 
201353 264260 
201379 264261 
201344 264275 
201371 264284 
201366 264300 
201395 264306 
201362 264331 
201389 264323 
201372 264322 
201382 264325 
201354 264294 
201365 264260 
201328 264158 
201330 264092 
201265 264010 
201256 263912 
201201 263863 
201194 263752 
201159 263764 
201181 263688 
201157 263649 
201164 263603 
201128 263659 
201135 263615 
201115 263619 
201130 263565 
201122 263578 
201101 263531 
201102 263575 
201086 263516 
201091 263516 
201106 263493 
201082 263552 
201112 263571 
201095 263529 
201127 263560 
201077 263589 
201128 263562 
201107 263575 
201129 263582 
201095 263624 
201108 263573 
201078 263623 
201126 263579 
201123 263611 
201129 263591 
201127 263624 
201128 263594 
201133 263619 
201149 263647 
201121 263664 
201153 263643 
201143 263692 
201164 263705 
201144 263738 
201196 263722 
201167 263778 
201177 263775 
201201 263815 
201220 263845 
201183 263865 
201225 263857 
201213 263890 
201237 263875 
201221 263921 
201254 263921 
201230 263985 
201262 263974 
201242 263969 
201260 263952 
201235 264029 
201287 264001 
201256 264064 
201287 264003 
201264 264058 
201285 264049 
201297 264120 
201320 264104 
201292 264110 
201313 264093 
201299 264170 
201343 264149 
201282 264162 
201344 264175 
201303 264224 
201334 264185 
201318 264217 
201360 264207 
201350 264282 
201368 264237 
201350 264280 
201341 264281 
201372 264306 
201355 264314 
201378 264323 
201386 264339 
201376 264368 
201413 264365 
201373 264387 
201380 264344 
201370 264269 
201342 264143 
201302 264129 
201280 264000 
201272 263972 
201221 263898 
201238 263861 
201198 263777 
201193 263790 
201163 263736 
201166 263762 
201162 263727 
201161 263732 
201156 263683 
201167 263704 
201137 263690 
201156 263678 
201150 263637 
201127 263698 
201123 263653 
201132 263701 
201151 263679 
201163 263708 
201151 263731 
201174 263742 
201149 263710 
201173 263750 
201170 263720 
201174 263765 
201166 263717 
201168 263764 
201166 263724 
201186 263744 
201175 263745 
201178 263753 
201189 263769 
201220 263772 
201161 263777 
201167 263823 
201193 263800 
201201 263847 
201201 263818 
201200 263918 
201205 263857 
201246 263855 
201209 263902 
201232 263895 
201223 263937 
201247 263948 
201220 263958 
201282 263967 
201237 263986 
201291 264026 
201251 263967 
201281 264020 
201281 264067 
201304 264056 
201269 264081 
201296 264104 
201283 264097 
201307 264091 
201302 264133 
201322 264190 
201314 264158 
201322 264181 
201317 264165 
201360 264224 
201295 264212 
201331 264229 
201326 264241 
201364 264259 
201327 264258 
201350 264296 
201344 264289 
201362 264329 
201365 264303 
201365 264336 
201346 264342 
201387 264299 
201357 264314 
201379 264287 
201336 264206 
201343 264152 
201298 264064 
201281 264001 
201230 263958 
201233 263895 
201200 263784 
201205 263827 
201198 263741 
201195 263759 
201170 263711 
201168 263762 
201133 263720 
201179 263725 
201148 263729 
201156 263695 
201157 263674 
201153 263680 
201135 263675 
201180 263734 
201165 263715 
201150 263752 
201144 263739 
201163 263759 
201171 263730 
201164 263771 
201162 263785 
201175 263763 
201182 263753 
201171 263787 
201162 263756 
201168 263764 
201169 263766 
201162 263765 
201167 263742 
201177 263774 
201182 263766 
201182 263811 
201208 263802 
201183 263839 
201195 263821 
201215 263876 
201195 263908 
201190 263891 
201209 263886 
201234 263941 
201208 263941 
201241 263967 
201218 263947 
201217 264013 
201250 264007 
201221 264047 
201270 264052 
201240 264073 
201260 264067 
201265 264093 
201256 264114 
201279 264101 
201290 264131 
201263 264157 
201295 264184 
201295 264170 
201309 264209 
201310 264192 
201315 264241 
201299 264239 
201307 264225 
201296 264246 
201317 264273 
201317 264286 
201332 264315 
201345 264325 
201324 264355 
201315 264310 
201356 264350 
201350 264365 
201338 264357 
201327 264334 
201343 264364 
201342 264327 
201325 264280 
201299 264179 
201269 264124 
201261 264063 
201251 263989 
201219 263908 
201179 263885 
201183 263833 
201167 263837 
201165 263797 
201176 263798 
201165 263770 
201154 263746 
201137 263705 
201150 263715 
201142 263733 
201124 263716 
201142 263683 
201142 263689 
201145 263658 
201145 263720 
201134 263727 
201127 263714 
201143 263751 
201133 263754 
201173 263752 
201149 263769 
201172 263772 
201145 263777 
201143 263752 
201134 263777 
201171 263775 
201147 263788 
201164 263793 
201157 263816 
201158 263782 
201165 263780 
201163 263814 
201182 263825 
201172 263822 
201177 263846 
201176 263868 
201190 263870 
201185 263882 
201186 263889 
201206 263891 
201188 263934 
201209 263885 
201178 263941 
201208 263943 
201212 263994 
201218 263981 
201217 264029 
201234 264051 
201213 264049 
201230 264019 
201228 264109 
201241 264048 
201241 264075 
201244 264087 
201242 264145 
201251 264132 
201247 264149 
201276 264161 
201248 264165 
201259 264199 
201277 264187 
201264 264190 
201276 264258 
201272 264230 
201276 264242 
201288 264219 
201291 264296 
201301 264219 
201279 264246 
201274 264174 
201254 264201 
201246 264102 
201237 264097 
201233 264023 
201207 263968 
201195 263894 
201170 263844 
201162 263787 
201132 263787 
201108 263728 
201102 263733 
201097 263688 
201080 263663 
201092 263645 
201055 263647 
201067 263599 
201078 263575 
201077 263573 
201087 263615 
201074 263590 
201077 263600 
201078 263586 
201096 263622 
201091 263636 
201100 263628 
201108 263642 
201112 263674 
201097 263684 
201114 263681 
201144 263637 
201131 263696 
201129 263687 
201112 263718 
201149 263689 
201113 263702 
201142 263702 
201122 263735 
201167 263733 
201150 263769 
201159 263706 
201155 263765 
201170 263764 
201187 263815 
201209 263825 
201178 263842 
201222 263838 
201211 263844 
201207 263862 
201207 263921 
201220 263894 
201220 263927 
201227 263911 
201225 263957 
201242 263939 
201229 263994 
201247 263951 
201259 263999 
201252 264019 
201257 264073 
201294 264020 
201307 264095 
201260 264050 
201291 264111 
201294 264088 
201292 264109 
201299 264153 
201317 264146 
201314 264190 
201315 264162 
201287 264165 
201313 264198 
201324 264178 
201333 264136 
201297 264109 
201274 264067 
201272 264020 
201255 263965 
201234 263876 
201227 263843 
201178 263790 
201184 263725 
201180 263733 
201182 263678 
201141 263697 
201158 263687 
201144 263639 
201150 263657 
201141 263623 
201140 263632 
201154 263621 
201153 263627 
201153 263631 
201144 263623 
201137 263602 
201156 263645 
201157 263648 
201152 263638 
201162 263688 
201178 263679 
201156 263711 
201139 263665 
201164 263659 
201166 263657 
201156 263691 
201160 263696 
201173 263691 
201186 263683 
201161 263692 
201174 263704 
201164 263689 
201191 263728 
201200 263694 
201206 263750 
201215 263776 
201201 263785 
201191 263803 
201201 263784 
201187 263809 
201219 263823 
201218 263837 
201202 263832 
201212 263896 
201247 263857 
201255 263880 
201233 263884 
201262 263927 
201267 263921 
201265 263948 
201267 263932 
201263 263973 
201278 263984 
201287 264014 
201288 264014 
201267 264056 
201286 264039 
201282 264045 
201300 264054 
201296 264094 
201327 264063 
201311 264105 
201315 264026 
201286 264021 
201276 263980 
201253 263965 
201206 263820 
201191 263793 
201177 263683 
201164 263709 
201157 263636 
201137 263621 
201144 263567 
201130 263608 
201135 263553 
201112 263577 
201125 263570 
201111 263569 
201109 263520 
201124 263553 
201124 263518 
201135 263571 
201119 263546 
201126 263557 
201141 263604 
201136 263617 
201138 263567 
201143 263657 
201139 263639 
201149 263647 
201159 263617 
201155 263637 
201144 263596 
201152 263640 
201139 263623 
201130 263635 
201161 263605 
201151 263658 
201161 263666 
201171 263689 
201177 263644 
201160 263657 
201189 263673 
201188 263718 
201191 263718 
201188 263752 
201207 263742 
201201 263770 
201184 263797 
201208 263829 
201210 263803 
201210 263813 
201209 263838 
201248 263868 
201242 263841 
201271 263927 
201269 263935 
201261 263904 
201240 263913 
201266 263976 
201249 263957 
201265 263985 
201251 263974 
201276 263968 
201284 263994 
201278 264039 
201285 264060 
201315 264080 
201304 264069 
201305 264070 
201324 264064 
201318 264036 
201277 264001 
201272 263928 
201228 263897 
201230 263802 
201200 263744 
201189 263666 
201174 263626 
201156 263572 
201115 263555 
201121 263582 
201102 263537 
201127 263507 
201085 263465 
201107 263451 
201073 263464 
201096 263475 
201071 263424 
201079 263389 
201069 263424 
201086 263443 
201066 263433 
201091 263489 
201068 263429 
201087 263494 
201088 263464 
201091 263474 
201076 263464 
201122 263478 
201075 263454 
201093 263479 
201079 263430 
201104 263473 
201099 263494 
201107 263457 
201085 263484 
201105 263453 
201110 263546 
201120 263523 
201088 263536 
201117 263573 
201107 263557 
201130 263595 
201132 263600 
201131 263592 
201146 263613 
201156 263636 
201173 263660 
201184 263681 
201178 263688 
201179 263676 
201166 263736 
201201 263738 
201177 263775 
201203 263772 
201185 263784 
201207 263776 
201203 263828 
201234 263834 
201227 263853 
201239 263875 
201238 263888 
201259 263912 
201252 263951 
201271 263963 
201260 263956 
201268 263949 
201245 263983 
201281 264009 
201276 264009 
201298 264032 
201262 263985 
201310 264042 
201283 264065 
201306 264064 
201283 264091 
201308 264100 
201304 264128 
201345 264140 
201311 264119 
201359 264150 
201324 264159 
201327 264120 
201297 264063 
201320 263977 
201263 263942 
201262 263826 
201191 263760 
201197 263690 
201134 263601 
201134 263555 
201099 263562 
201102 263493 
201055 263490 
201070 263449 
201065 263425 
201065 263401 
201022 263395 
201058 263390 
201018 263357 
201038 263331 
200994 263377 
201010 263322 
201017 263295 
201027 263325 
201000 263311 
201040 263397 
201008 263355 
201050 263360 
201036 263359 
201037 263367 
201025 263371 
201051 263398 
201007 263377 
201057 263365 
201023 263365 
201072 263418 
201027 263368 
201066 263412 
201025 263381 
201081 263418 
201040 263435 
201069 263467 
201060 263448 
201101 263460 
201081 263475 
201120 263513 
201082 263500 
201132 263543 
201089 263585 
201138 263602 
201112 263595 
201157 263618 
201130 263639 
201187 263662 
201141 263680 
201179 263690 
201152 263732 
201190 263702 
201143 263717 
201205 263765 
201193 263762 
201231 263797 
201192 263831 
201248 263829 
201203 263874 
201248 263907 
201256 263896 
201246 263882 
201235 263913 
201249 263928 
201262 263937 
201271 263945 
201241 263970 
201286 263952 
201250 263997 
201294 263968 
201267 263994 
201327 264010 
201287 264021 
201311 264059 
201290 264050 
201308 264096 
201279 264096 
201305 264103 
201286 264098 
201339 264093 
201293 264077 
201294 264046 
201280 263943 
201257 263858 
201199 263812 
201212 263697 
201147 263638 
201149 263582 
201106 263531 
201128 263532 
201086 263476 
201111 263475 
201072 263423 
201091 263481 
201060 263407 
201070 263385 
201043 263368 
201064 263385 
201025 263337 
201047 263373 
201008 263333 
201033 263387 
201046 263360 
201042 263410 
201038 263403 
201070 263416 
201049 263401 
201060 263417 
201070 263427 
201082 263402 
201060 263415 
201074 263438 
201077 263442 
201083 263453 
201063 263456 
201062 263424 
201058 263450 
201094 263444 
201078 263479 
201090 263533 
201106 263481 
201126 263533 
201088 263547 
201131 263559 
201122 263584 
201130 263589 
201139 263611 
201121 263615 
201161 263661 
201193 263685 
201155 263655 
201167 263686 
201167 263727 
201178 263717 
201178 263739 
201203 263770 
201192 263766 
201207 263823 
201202 263801 
201203 263850 
201222 263844 
201235 263875 
201232 263881 
201244 263875 
201274 263912 
201266 263930 
201275 263906 
201259 263946 
201301 263969 
201285 263976 
201301 264000 
201277 264015 
201264 264025 
201297 264041 
201312 264041 
201319 264051 
201309 264056 
201310 264076 
201322 264079 
201318 264089 
201341 264125 
201297 264149 
201330 264120 
201313 264072 
201329 264075 
201290 264028 
201257 263958 
201246 263897 
201238 263758 
201184 263701 
201159 263650 
201152 263601 
201136 263543 
201101 263544 
201128 263515 
201123 263478 
201134 263515 
201087 263494 
201107 263467 
201088 263426 
201096 263452 
201069 263451 
201075 263391 
201044 263473 
201092 263419 
201062 263480 
201096 263480 
201084 263527 
201119 263503 
201119 263544 
201115 263536 
201091 263533 
201136 263532 
201088 263534 
201126 263536 
201089 263532 
201114 263516 
201102 263549 
201121 263511 
201106 263567 
201148 263536 
201112 263549 
201150 263594 
201138 263618 
201166 263604 
201125 263639 
201152 263640 
201141 263684 
201197 263684 
201176 263739 
201171 263683 
201177 263741 
201221 263745 
201185 263770 
201233 263801 
201193 263783 
201245 263831 
201224 263870 
201242 263854 
201227 263886 
201236 263899 
201240 263940 
201281 263918 
201242 263975 
201279 263922 
201270 264013 
201321 263970 
201280 263987 
201299 263968 
201265 264037 
201311 264048 
201301 264062 
201330 264077 
201315 264099 
201321 264072 
201294 264095 
201349 264124 
201330 264152 
201344 264144 
201318 264233 
201342 264180 
201334 264210 
201354 264208 
201322 264225 
201384 264205 
201360 264302 
201371 264224 
201359 264248 
201359 264134 
201313 264129 
201299 264020 
201278 264006 
201276 263860 
201210 263825 
201215 263728 
201171 263734 
201187 263640 
201158 263649 
201167 263579 
201123 263580 
201144 263555 
201120 263599 
201132 263556 
201101 263567 
201114 263499 
201102 263528 
201112 263487 
201086 263508 
201098 263470 
201097 263536 
201112 263525 
201110 263582 
201139 263571 
201122 263564 
201146 263564 
201130 263588 
201103 263574 
201132 263605 
201122 263604 
201110 263624 
201130 263571 
201119 263622 
201136 263615 
201110 263634 
201156 263630 
201154 263655 
201158 263641 
201152 263652 
201156 263617 
201163 263722 
201171 263696 
201177 263744 
201190 263702 
201199 263799 
201203 263703 
201219 263814 
201201 263783 
201201 263846 
201232 263871 
201213 263870 
201213 263874 
201251 263915 
201239 263893 
201254 263935 
201245 263918 
201289 264008 
201272 264020 
201289 264024 
201311 263998 
201298 264054 
201279 264041 
201302 264087 
201300 264077 
201336 264096 
201322 264115 
201331 264164 
201325 264103 
201321 264167 
201342 264153 
201341 264210 
201328 264186 
201360 264235 
201331 264198 
201373 264263 
201364 264245 
201364 264281 
201348 264282 
201381 264294 
201378 264313 
201399 264322 
201389 264294 
201423 264352 
201358 264286 
201374 264228 
201333 264188 
201364 264101 
201290 264015 
201278 263909 
201222 263883 
201262 263798 
201196 263789 
201224 263729 
201142 263672 
201191 263693 
201164 263654 
201195 263651 
201143 263664 
201181 263668 
201102 263631 
201186 263626 
201125 263609 
201171 263628 
201126 263617 
201172 263640 
201105 263627 
201199 263669 
201110 263641 
201190 263661 
201138 263674 
201189 263695 
201135 263737 
201201 263683 
201135 263712 
201185 263702 
201165 263713 
201208 263712 
201145 263728 
201214 263699 
201162 263720 
201215 263728 
201158 263793 
201222 263791 
201163 263802 
201244 263792 
201176 263845 
201223 263814 
201195 263876 
201257 263831 
201205 263870 
201252 263885 
201226 263961 
201292 263921 
201224 263953 
201291 263939 
201218 264002 
201281 263984 
201246 264022 
201319 263994 
201272 264072 
201331 264074 
201267 264108 
201352 264056 
201277 264122 
201366 264116 
201297 264170 
201350 264130 
201312 264178 
201351 264153 
201312 264254 
201366 264177 
201356 264226 
201374 264207 
201355 264277 
201363 264257 
201340 264297 
201376 264294 
201363 264350 
201386 264262 
201364 264372 
201410 264346 
201383 264365 
201398 264348 
201414 264393 
201395 264377 
201423 264385 
201416 264436 
201413 264437 
201424 264381 
201424 264389 
201402 264297 
201387 264256 
201338 264146 
201360 264115 
201295 264032 
201282 263961 
201256 263897 
201269 263878 
201203 263835 
201233 263834 
201204 263814 
201239 263830 
201209 263814 
201219 263822 
201185 263789 
201244 263805 
201188 263792 
201213 263810 
201206 263810 
201254 263824 
201195 263829 
201255 263890 
201187 263817 
201237 263866 
201199 263854 
201260 263902 
201217 263884 
201247 263897 
201209 263858 
201279 263904 
201221 263873 
201276 263870 
201211 263863 
201283 263885 
201209 263850 
201269 263911 
201192 263899 
201285 263940 
201238 263904 
201277 263942 
201231 263958 
201303 263963 
201246 263964 
201308 264038 
201241 264039 
201310 264037 
201275 263977 
201341 264042 
201277 264048 
201329 264099 
201284 264117 
201335 264113 
201290 264150 
201345 264143 
201290 264135 
201347 264196 
201311 264222 
201368 264221 
201336 264255 
201386 264263 
201334 264265 
201379 264300 
201346 264266 
201396 264309 
201360 264310 
201408 264329 
201355 264324 
201406 264330 
201351 264397 
201411 264334 
201385 264362 
201422 264379 
201390 264417 
201437 264429 
201373 264442 
201431 264439 
201389 264471 
201446 264436 
201402 264477 
201424 264442 
201388 264360 
201393 264302 
201351 264268 
201377 264177 
201307 264095 
201306 264040 
201265 263999 
201276 263927 
201230 263918 
201262 263886 
201220 263924 
201246 263873 
201217 263876 
201240 263850 
201211 263849 
201232 263840 
201181 263865 
201216 263794 
201205 263819 
201230 263830 
201189 263852 
201209 263850 
201219 263920 
201236 263860 
201185 263912 
201226 263837 
201213 263903 
201250 263876 
201248 263951 
201252 263870 
201223 263934 
201244 263856 
201224 263957 
201245 263904 
201229 263940 
201248 263890 
201253 263975 
201250 263905 
201242 264004 
201276 263944 
201258 264051 
201263 263992 
201285 264044 
201271 264001 
201303 264096 
201277 264014 
201311 264113 
201318 264045 
201310 264182 
201317 264076 
201299 264195 
201334 264107 
201324 264165 
201353 264117 
201338 264250 
201330 264206 
201335 264255 
201362 264244 
201355 264288 
201346 264217 
201330 264289 
201355 264230 
201365 264352 
201346 264267 
201357 264376 
201383 264361 
201378 264389 
201355 264330 
201383 264415 
201396 264386 
201376 264419 
201393 264396 
201376 264458 
201385 264431 
201389 264484 
201403 264501 
201417 264517 
201418 264446 
201423 264477 
201409 264423 
201405 264442 
201401 264331 
201360 264323 
201329 264181 
201336 264148 
201282 264068 
201265 264053 
201254 263989 
201249 263922 
201212 263878 
201230 263918 
201220 263872 
201238 263872 
201198 263837 
201203 263823 
201208 263810 
201190 263818 
201193 263834 
201196 263834 
201192 263812 
201202 263789 
201203 263868 
201195 263823 
201195 263882 
201229 263835 
201229 263900 
201219 263891 
201207 263924 
201219 263892 
201218 263866 
201215 263867 
201215 263899 
201219 263871 
201206 263880 
201211 263862 
201235 263882 
201226 263886 
201232 263916 
201212 263918 
201224 263947 
201238 263932 
201246 263980 
201233 263936 
201259 263990 
201252 263966 
201234 264078 
201249 264036 
201270 264092 
201278 264042 
201273 264124 
201279 264100 
201277 264138 
201273 264110 
201280 264164 
201284 264096 
201280 264187 
201321 264148 
201306 264255 
201310 264240 
201334 264259 
201353 264201 
201334 264315 
201319 264265 
201339 264330 
201344 264253 
201332 264359 
201339 264302 
201356 264380 
201354 264326 
201375 264413 
201362 264363 
201381 264459 
201376 264347 
201361 264468 
201371 264401 
201409 264476 
201395 264451 
201395 264505 
201422 264438 
201405 264537 
201417 264500 
201405 264554 
201422 264501 
201422 264569 
201423 264513 
201411 264596 
201423 264539 
201446 264620 
201429 264501 
201441 264504 
201419 264429 
201374 264389 
201366 264270 
201354 264255 
201323 264152 
201284 264118 
201281 264029 
201249 264057 
201253 263947 
201230 263940 
201252 263932 
201228 263941 
201216 263879 
201226 263918 
201222 263853 
201212 263869 
201187 263851 
201214 263890 
201187 263853 
201186 263865 
201210 263844 
201198 263890 
201193 263876 
201201 263910 
201224 263879 
201215 263887 
201209 263940 
201201 263917 
201201 263871 
201224 263925 
201197 263935 
201205 263965 
201210 263897 
201211 263953 
201226 263922 
201246 263950 
201228 263952 
201231 263934 
201235 263941 
201222 263956 
201205 263961 
201231 263993 
201244 263999 
201234 264020 
201246 264021 
201256 264014 
201246 264085 
201265 264095 
201252 264091 
201270 264124 
201283 264125 
201272 264137 
201299 264152 
201283 264172 
201290 264203 
201275 264208 
201306 264236 
201320 264253 
201325 264278 
201301 264271 
201320 264233 
201309 264265 
201321 264286 
201328 264287 
201335 264291 
201334 264351 
201352 264361 
201343 264367 
201345 264356 
201339 264411 
201352 264396 
201345 264412 
201335 264437 
201373 264422 
201370 264476 
201371 264453 
201374 264448 
201361 264505 
201404 264477 
201378 264490 
201403 264526 
201393 264506 
201420 264544 
201393 264571 
201411 264545 
201402 264559 
201414 264589 
201432 264564 
201410 264593 
201400 264586 
201435 264560 
201402 264518 
201406 264425 
201370 264405 
201366 264328 
201317 264261 
201314 264206 
201270 264144 
201280 264108 
201262 264040 
201235 264016 
201253 264045 
201233 263978 
201221 264040 
201237 264009 
201228 264000 
201205 263970 
201228 263966 
201190 263961 
201213 263955 
201217 264010 
201208 264010 
201225 263996 
201215 264023 
201245 263989 
201219 264025 
201221 264004 
201200 264019 
201264 263994 
201241 263997 
201229 264014 
201221 264029 
201231 264024 
201227 263981 
201213 264026 
201233 264001 
201254 264021 
201226 264017 
201246 264034 
201236 264037 
201253 264063 
201235 264076 
201249 264101 
201276 264109 
201238 264083 
201273 264111 
201269 264118 
201300 264143 
201267 264150 
201289 264161 
201267 264185 
201292 264167 
201290 264198 
201285 264262 
201291 264235 
201291 264236 
201320 264310 
201319 264263 
201338 264284 
201333 264325 
201325 264309 
201306 264336 
201320 264329 
201332 264352 
201360 264379 
201335 264361 
201342 264372 
201348 264409 
201339 264398 
201341 264417 
201345 264424 
201359 264442 
201354 264456 
201362 264437 
201368 264459 
201367 264489 
201364 264517 
201371 264496 
201381 264495 
201398 264547 
201387 264581 
201384 264542 
201403 264532 
201377 264490 
201384 264466 
201347 264413 
201329 264333 
201296 264251 
201285 264203 
201242 264181 
201273 264098 
201216 264034 
201212 264035 
201197 263987 
201203 263968 
201187 263957 
201204 263953 
201194 263949 
201213 263964 
201186 263926 
201183 263963 
201181 263929 
201192 263920 
201177 263897 
201202 263960 
201164 263948 
201205 263927 
201178 263983 
201198 263971 
201207 263945 
201213 263930 
201192 263989 
201197 263971 
201185 263961 
201192 263970 
201196 263950 
201222 263957 
201183 263928 
201222 263963 
201216 263951 
201172 263991 
201189 264012 
201201 264004 
201190 264005 
201199 264029 
201216 264041 
201240 264050 
201223 264056 
201248 264076 
201223 264099 
201228 264136 
201229 264100 
201228 264137 
201250 264143 
201250 264158 
201271 264175 
201288 264162 
201251 264168 
201275 264224 
201255 264227 
201291 264227 
201278 264260 
201310 264255 
201275 264336 
201260 264313 
201299 264337 
201330 264337 
201315 264377 
201325 264333 
201331 264372 
201341 264374 
201312 264363 
201324 264364 
201335 264422 
201323 264415 
201368 264416 
201324 264416 
201352 264485 
201346 264469 
201359 264483 
201355 264511 
201353 264508 
201357 264500 
201326 264444 
201333 264413 
201306 264342 
201303 264283 
201258 264196 
201243 264134 
201217 264056 
201215 263967 
201197 263951 
201178 263938 
201167 263927 
201141 263904 
201179 263904 
201121 263821 
201144 263810 
201115 263845 
201135 263821 
201098 263806 
201125 263793 
201086 263771 
201118 263764 
201100 263745 
201126 263808 
201091 263793 
201128 263817 
201087 263797 
201137 263789 
201098 263802 
201119 263807 
201073 263806 
201146 263803 
201096 263829 
201137 263819 
201101 263810 
201122 263767 
201106 263829 
201134 263829 
201100 263834 
201145 263806 
201138 263847 
201141 263853 
201127 263846 
201156 263875 
201135 263903 
201149 263898 
201159 263913 
201174 263941 
201130 263923 
201176 263958 
201148 264031 
201183 263972 
201162 264019 
201218 264000 
201187 264039 
201226 264071 
201185 264063 
201222 264079 
201202 264085 
201224 264085 
201213 264125 
201243 264135 
201225 264149 
201260 264193 
201223 264174 
201259 264195 
201248 264217 
201250 264205 
201266 264225 
201291 264209 
201274 264217 
201299 264267 
201248 264286 
201285 264277 
201284 264280 
201303 264306 
201309 264317 
201293 264352 
201299 264341 
201329 264308 
201266 264382 
201308 264373 
201290 264323 
201292 264257 
201262 264241 
201262 264170 
201198 264077 
201210 264000 
201155 263933 
201145 263876 
201101 263799 
201104 263768 
201082 263741 
201074 263733 
201045 263702 
201077 263698 
201066 263683 
201051 263692 
201030 263671 
201056 263657 
201022 263622 
201037 263588 
201012 263595 
201040 263591 
201022 263625 
201050 263622 
201021 263611 
201042 263624 
201021 263609 
201039 263620 
201013 263620 
201048 263650 
201017 263654 
201024 263612 
201004 263644 
201021 263655 
201025 263635 
201032 263640 
201029 263638 
201064 263636 
201032 263647 
201063 263667 
201048 263674 
201057 263688 
201061 263698 
201080 263678 
201078 263731 
201104 263741 
201087 263743 
201102 263777 
201076 263795 
201120 263785 
201114 263799 
201121 263812 
201111 263851 
201143 263880 
201122 263873 
201128 263848 
201119 263894 
201147 263913 
201145 263909 
201153 263958 
201147 263962 
201194 263988 
201156 263953 
201157 264032 
201177 264028 
201181 264052 
201153 263998 
201181 264049 
201188 264073 
201188 264056 
201210 264095 
201199 264093 
201215 264118 
201193 264111 
201207 264136 
201200 264098 
201213 264150 
201248 264162 
201252 264173 
201231 264190 
201236 264195 
201240 264234 
201235 264224 
201270 264220 
201265 264231 
201265 264248 
201238 264216 
201212 264173 
201215 264069 
201219 264010 
201166 263922 
201140 263868 
201104 263770 
201076 263740 
201055 263657 
201045 263687 
201036 263603 
201008 263592 
201002 263597 
201001 263583 
201008 263557 
201019 263579 
200979 263527 
200989 263538 
200987 263489 
200978 263504 
200976 263488 
200980 263545 
200960 263515 
200990 263535 
200984 263508 
200984 263552 
200973 263532 
200981 263564 
200975 263530 
200984 263556 
200970 263536 
201007 263557 
200990 263537 
200988 263535 
200998 263540 
200980 263559 
200997 263564 
201008 263547 
200995 263555 
200985 263576 
200994 263597 
201021 263609 
201010 263577 
201022 263632 
201011 263622 
201046 263673 
201029 263645 
201065 263700 
201056 263708 
201057 263698 
201048 263747 
201093 263761 
201067 263756 
201098 263790 
201091 263826 
201108 263812 
201098 263790 
201111 263840 
201112 263851 
201141 263877 
201120 263858 
201152 263920 
201111 263884 
201130 263925 
201132 263961 
201146 263986 
201126 263961 
201177 263981 
201152 263975 
201177 264014 
201145 263992 
201166 264053 
201155 264024 
201193 264061 
201162 264089 
201199 264082 
201189 264104 
201199 264133 
201198 264129 
201211 264170 
201189 264146 
201216 264195 
201203 264162 
201212 264219 
201235 264187 
201228 264258 
201241 264219 
201244 264270 
201245 264231 
201225 264156 
201205 264086 
201191 264075 
201144 263926 
201134 263855 
201065 263750 
201092 263736 
201049 263628 
201008 263607 
200975 263541 
200976 263542 
200960 263502 
200963 263475 
200945 263457 
200984 263416 
200935 263422 
200937 263417 
200919 263407 
200910 263394 
200907 263363 
200889 263370 
200893 263364 
200912 263386 
200912 263389 
200922 263400 
200912 263402 
200939 263398 
200946 263430 
200939 263427 
200942 263418 
200950 263418 
200924 263425 
200929 263376 
200921 263434 
200929 263445 
200923 263446 
200913 263417 
200912 263439 
200923 263468 
200939 263431 
200947 263493 
200959 263468 
200969 263524 
200991 263554 
200978 263551 
201008 263565 
201008 263591 
200980 263621 
201008 263597 
201008 263624 
201012 263638 
201017 263690 
201025 263680 
201043 263716 
201069 263713 
201064 263743 
201040 263731 
201082 263769 
201078 263803 
201107 263815 
201090 263835 
201080 263820 
201086 263900 
201096 263882 
201101 263860 
201149 263895 
201127 263921 
201121 263914 
201110 263912 
201123 263948 
201117 263979 
201142 263970 
201131 264000 
201153 264013 
201144 264020 
201177 264041 
201157 264061 
201179 264071 
201180 264103 
201180 264100 
201163 264129 
201188 264151 
201157 264122 
201198 264126 
201181 264177 
201229 264195 
201200 264210 
201221 264210 
201201 264247 
201237 264239 
201220 264245 
201238 264255 
201241 264292 
201267 264267 
201248 264311 
201249 264255 
201215 264226 
201212 264119 
201172 264042 
201134 263892 
201107 263859 
201058 263758 
201046 263696 
201027 263614 
201012 263567 
201010 263512 
200984 263540 
200969 263498 
200951 263491 
200956 263458 
200927 263458 
200931 263436 
200938 263395 
200922 263394 
200930 263382 
200921 263350 
200915 263381 
200906 263379 
200918 263378 
200928 263416 
200921 263472 
200939 263390 
200949 263439 
200945 263417 
200932 263447 
200945 263413 
200907 263450 
200945 263431 
200938 263453 
200922 263443 
200927 263428 
200926 263449 
200941 263434 
200951 263433 
200956 263479 
200934 263457 
200959 263495 
200959 263530 
200983 263498 
200984 263549 
200967 263550 
200995 263569 
201007 263609 
200974 263593 
201035 263662 
200994 263625 
201032 263670 
201031 263666 
201054 263742 
201044 263696 
201063 263745 
201059 263762 
201070 263768 
201056 263785 
201081 263776 
201075 263820 
201091 263848 
201090 263860 
201133 263890 
201106 263905 
201114 263919 
201097 263901 
201139 263922 
201116 263931 
201158 263959 
201117 263983 
201150 263979 
201150 264003 
201172 263981 
201130 264023 
201183 264011 
201143 264051 
201176 264070 
201158 264079 
201198 264087 
201193 264079 
201211 264120 
201172 264113 
201201 264127 
201196 264134 
201213 264180 
201214 264199 
201230 264210 
201209 264246 
201234 264217 
201239 264241 
201234 264185 
201208 264155 
201201 264047 
201165 264006 
201134 263906 
201100 263838 
201085 263717 
201029 263713 
201027 263614 
201007 263633 
201016 263580 
200972 263600 
200986 263526 
200982 263557 
200992 263507 
200958 263493 
200985 263503 
200956 263519 
200965 263514 
200946 263530 
200965 263479 
200934 263511 
200953 263491 
200957 263544 
200984 263523 
200981 263595 
200987 263516 
200966 263586 
200972 263580 
200983 263541 
200983 263547 
200979 263576 
200988 263553 
200950 263546 
201000 263537 
200982 263528 
200966 263539 
200996 263570 
201001 263563 
201009 263568 
200991 263604 
201011 263619 
200999 263647 
201020 263640 
201042 263654 
201026 263654 
201032 263670 
201042 263703 
201051 263730 
201056 263756 
201051 263774 
201058 263759 
201066 263794 
201083 263810 
201082 263825 
201094 263871 
201083 263820 
201115 263845 
201119 263888 
201140 263914 
201138 263906 
201133 263938 
201107 263950 
201132 263970 
201157 263981 
201144 264021 
201133 264005 
201161 263993 
201158 264050 
201168 264028 
201182 264077 
201215 264047 
201171 264097 
201189 264057 
201182 264143 
201216 264093 
201184 264157 
201224 264137 
201192 264164 
201203 264197 
201206 264195 
201224 264189 
201229 264282 
201237 264178 
201222 264257 
201251 264235 
201252 264294 
201262 264213 
201222 264168 
201209 264130 
201169 264094 
201169 263952 
201113 263917 
201093 263801 
201058 263768 
201069 263699 
201024 263655 
201025 263592 
200997 263644 
201010 263600 
200985 263602 
200989 263577 
201002 263568 
200988 263545 
200961 263556 
200983 263493 
200945 263516 
200976 263530 
200960 263544 
200985 263505 
200981 263578 
200960 263545 
200971 263555 
200984 263567 
201002 263595 
200986 263542 
200991 263573 
200972 263568 
201003 263568 
200979 263533 
201007 263597 
200966 263612 
200966 263582 
200987 263591 
201001 263580 
200984 263556 
201008 263610 
200992 263637 
200997 263624 
200982 263651 
201040 263661 
201024 263682 
201049 263712 
201025 263686 
201069 263763 
201027 263724 
201084 263779 
201076 263813 
201069 263811 
201057 263825 
201098 263844 
201070 263883 
201093 263913 
201076 263910 
201123 263916 
201108 263917 
201122 263965 
201123 263960 
201126 263978 
201114 263989 
201145 264008 
201130 264024 
201157 264042 
201150 264014 
201168 264062 
201148 264082 
201176 264085 
201185 264092 
201192 264114 
201162 264147 
201195 264129 
201187 264162 
201208 264162 
201206 264202 
201200 264197 
201219 264205 
201218 264202 
201220 264226 
201224 264233 
201232 264244 
201227 264217 
201196 264127 
201208 264070 
201165 264008 
201140 263930 
201103 263867 
201084 263775 
201029 263722 
201001 263627 
200987 263620 
200993 263592 
200969 263571 
200982 263519 
200958 263531 
200932 263476 
200966 263512 
200942 263464 
200928 263437 
200915 263423 
200917 263418 
200908 263381 
200919 263450 
200921 263427 
200928 263455 
200937 263469 
200923 263470 
200927 263469 
200931 263506 
200925 263438 
200921 263511 
200936 263493 
200924 263540 
200927 263510 
200933 263551 
200942 263501 
200957 263534 
200966 263519 
200943 263544 
200963 263506 
200946 263560 
200942 263511 
200955 263570 
200960 263571 
200971 263592 
200985 263603 
200977 263631 
200993 263572 
200994 263659 
200971 263651 
200996 263702 
201030 263690 
201024 263737 
201016 263689 
201052 263753 
201046 263779 
201038 263803 
201076 263803 
201079 263808 
201093 263852 
201073 263865 
201082 263868 
201088 263898 
201077 263932 
201099 263932 
201099 263919 
201133 263952 
201121 263954 
201089 264001 
201121 264020 
201118 264002 
201128 264020 
201110 264027 
201111 264016 
201151 264063 
201148 264092 
201181 264131 
201150 264108 
201161 264090 
201155 264088 
201162 264061 
201131 263976 
201114 263894 
201068 263799 
201065 263726 
201003 263647 
200991 263583 
200975 263549 
200957 263515 
200928 263458 
200936 263437 
200912 263403 
200905 263433 
200902 263439 
200890 263353 
200871 263393 
200867 263356 
200870 263317 
200879 263303 
200864 263340 
200855 263290 
200884 263372 
200903 263339 
200902 263351 
200904 263384 
200896 263427 
200881 263384 
200868 263409 
200903 263408 
200880 263400 
200886 263386 
200895 263393 
200904 263383 
200904 263420 
200909 263419 
200908 263412 
200900 263409 
200899 263405 
200909 263412 
200912 263457 
200926 263450 
200940 263494 
200928 263477 
200937 263527 
200942 263509 
200946 263562 
200966 263596 
200977 263596 
200976 263586 
201005 263629 
200981 263645 
201017 263647 
200990 263648 
201018 263697 
201011 263717 
201034 263728 
201026 263734 
201037 263746 
201015 263772 
201062 263777 
201056 263799 
201063 263827 
201036 263815 
201060 263841 
201085 263822 
201090 263840 
201072 263855 
201106 263870 
201083 263938 
201103 263921 
201104 263956 
201123 263945 
201089 263955 
201118 263977 
201084 263963 
201142 263949 
201084 263937 
201118 263870 
201063 263766 
201040 263714 
200975 263598 
200992 263523 
200906 263468 
200942 263420 
200871 263408 
200909 263338 
200857 263315 
200879 263293 
200843 263268 
200867 263248 
200814 263275 
200834 263246 
200815 263219 
200839 263234 
200801 263216 
200820 263179 
200784 263227 
200833 263225 
200811 263278 
200864 263217 
200842 263260 
200872 263263 
200844 263278 
200862 263258 
200824 263279 
200841 263252 
200799 263246 
200857 263234 
200814 263241 
200844 263266 
200836 263279 
200852 263252 
200841 263277 
200861 263286 
200849 263276 
200865 263280 
200856 263329 
200873 263331 
200843 263329 
200879 263374 
200864 263439 
200919 263403 
200890 263429 
200896 263440 
200908 263469 
200957 263501 
200934 263432 
200941 263503 
200908 263532 
200952 263525 
200934 263506 
200972 263545 
200972 263558 
200997 263625 
200958 263591 
200998 263650 
200984 263679 
201008 263670 
200986 263638 
201027 263678 
200994 263690 
201027 263753 
201021 263718 
201035 263729 
201030 263745 
201039 263763 
201029 263767 
201053 263802 
201056 263780 
201060 263758 
201037 263742 
201052 263686 
201009 263642 
200980 263498 
200907 263405 
200900 263303 
200812 263242 
200821 263190 
200785 263108 
200781 263090 
200773 263076 
200750 263066 
200715 263031 
200747 263034 
200738 263001 
200712 262982 
200700 262953 
200696 262919 
200689 262909 
200695 262901 
200697 262916 
200681 262888 
200671 262918 
200705 262929 
200687 262955 
200686 262917 
200716 262924 
200699 262958 
200699 262933 
200717 262932 
200697 262928 
200700 262943 
200700 262921 
200705 262909 
200688 262932 
200722 262932 
200694 262946 
200689 262951 
200718 262958 
200706 262957 
200700 262978 
200720 262986 
200730 262996 
200724 263045 
200753 263062 
200751 263052 
200774 263079 
200788 263082 
200767 263121 
200776 263108 
200771 263161 
200786 263154 
200799 263197 
200802 263234 
200813 263197 
200836 263225 
200827 263250 
200815 263264 
200843 263284 
200836 263309 
200881 263320 
200876 263312 
200856 263373 
200888 263361 
200886 263378 
200871 263396 
200887 263396 
200904 263413 
200898 263441 
200910 263458 
200900 263443 
200930 263490 
200940 263467 
200933 263489 
200965 263521 
200944 263521 
200958 263518 
200929 263552 
200968 263538 
200936 263516 
200897 263364 
200841 263317 
200831 263180 
200765 263100 
200749 262963 
200698 262889 
200677 262834 
200634 262788 
200654 262764 
200624 262741 
200605 262664 
200600 262734 
200618 262660 
200566 262625 
200589 262549 
200542 262594 
200577 262525 
200551 262516 
200560 262478 
200515 262505 
200567 262479 
200527 262518 
200542 262528 
200550 262559 
200550 262533 
200546 262539 
200555 262524 
200546 262544 
200566 262525 
200536 262520 
200570 262536 
200540 262549 
200555 262511 
200540 262566 
200555 262495 
200544 262573 
200577 262546 
200540 262565 
200569 262552 
200568 262552 
200584 262610 
200574 262643 
200588 262609 
200582 262674 
200614 262650 
200620 262672 
200645 262684 
200616 262758 
200640 262737 
200621 262760 
200638 262730 
200643 262808 
200667 262806 
200665 262850 
200674 262839 
200676 262884 
200685 262871 
200684 262960 
200734 262910 
200706 262966 
200721 262960 
200724 262979 
200718 263004 
200743 263071 
200760 263027 
200748 263061 
200751 263050 
200754 263077 
200773 263072 
200764 263106 
200796 263128 
200790 263185 
200815 263175 
200816 263197 
200836 263180 
200821 263270 
200829 263240 
200834 263305 
200848 263258 
200866 263305 
200841 263323 
200853 263360 
200866 263337 
200855 263389 
200894 263384 
200911 263429 
200908 263429 
200914 263498 
200912 263437 
200932 263486 
200916 263506 
200933 263531 
200934 263510 
200928 263558 
200934 263569 
200915 263531 
200893 263413 
200868 263327 
200779 263164 
200762 263037 
200694 262929 
200653 262838 
200633 262753 
200601 262696 
200586 262639 
200596 262678 
200566 262609 
200575 262629 
200540 262565 
200532 262575 
200547 262538 
200529 262522 
200517 262487 
200521 262470 
200492 262420 
200539 262427 
200497 262421 
200529 262397 
200509 262447 
200529 262424 
200487 262402 
200518 262464 
200511 262466 
200536 262471 
200489 262422 
200514 262451 
200486 262441 
200530 262467 
200473 262419 
200492 262435 
200499 262457 
200501 262418 
200492 262461 
200503 262456 
200518 262458 
200536 262483 
200476 262474 
200541 262507 
200507 262513 
200562 262590 
200542 262570 
200568 262587 
200531 262570 
200610 262622 
200557 262654 
200629 262633 
200578 262674 
200591 262643 
200575 262689 
200624 262729 
200582 262726 
200653 262775 
200611 262808 
200671 262764 
200641 262834 
200660 262838 
200637 262862 
200681 262888 
200661 262923 
200695 262945 
200640 262943 
200757 262932 
200685 262950 
200736 262960 
200683 263013 
200733 263005 
200689 263020 
200753 263005 
200701 263091 
200791 263075 
200736 263125 
200778 263122 
200726 263117 
200794 263138 
200750 263167 
200802 263175 
200769 263263 
200828 263251 
200775 263235 
200846 263246 
200812 263290 
200863 263288 
200787 263257 
200844 263188 
200728 263095 
200746 262959 
200648 262907 
200665 262783 
200569 262662 
200557 262597 
200512 262554 
200532 262502 
200504 262508 
200509 262443 
200475 262482 
200505 262422 
200449 262426 
200510 262359 
200454 262395 
200482 262357 
200419 262345 
200463 262312 
200419 262341 
200462 262324 
200408 262345 
200459 262360 
200425 262387 
200462 262384 
200457 262424 
200474 262413 
200455 262407 
200490 262369 
200459 262396 
200468 262364 
200462 262406 
200469 262394 
200428 262406 
200482 262362 
200475 262405 
200481 262399 
200476 262436 
200490 262455 
200471 262474 
200502 262509 
200479 262510 
200467 262509 
200494 262579 
200523 262540 
200540 262564 
200524 262577 
200550 262608 
200549 262594 
200576 262703 
200562 262652 
200591 262700 
200584 262682 
200594 262716 
200578 262770 
200642 262811 
200598 262806 
200661 262839 
200618 262847 
200633 262858 
200624 262900 
200663 262915 
200659 262926 
200676 262956 
200662 262962 
200724 263025 
200668 263016 
200716 263031 
200685 263026 
200738 263060 
200660 263071 
200741 263126 
200726 263101 
200779 263150 
200726 263128 
200780 263169 
200738 263150 
200798 263202 
200736 263233 
200821 263249 
200776 263241 
200849 263315 
200774 263301 
200846 263325 
200779 263357 
200846 263402 
200819 263377 
200852 263373 
200832 263388 
200886 263445 
200835 263452 
200890 263467 
200839 263484 
200901 263512 
200836 263489 
200911 263481 
200804 263383 
200852 263322 
200761 263213 
200761 263060 
200659 262990 
200651 262861 
200551 262776 
200590 262682 
200497 262653 
200562 262643 
200493 262579 
200538 262537 
200461 262529 
200518 262561 
200444 262519 
200496 262456 
200419 262482 
200465 262376 
200422 262377 
200478 262392 
200416 262361 
200448 262388 
200411 262400 
200477 262395 
200433 262429 
200472 262408 
200440 262449 
200474 262434 
200444 262426 
200467 262421 
200423 262463 
200465 262407 
200419 262429 
200466 262402 
200444 262427 
200475 262432 
200428 262467 
200489 262468 
200469 262507 
200480 262463 
200459 262504 
200511 262549 
200474 262577 
200511 262545 
200503 262603 
200540 262581 
200509 262635 
200521 262630 
200527 262676 
200547 262682 
200540 262726 
200571 262712 
200576 262770 
200602 262735 
200602 262785 
200578 262834 
200609 262883 
200626 262831 
200627 262920 
200635 262870 
200647 262979 
200665 262927 
200644 262957 
200665 262952 
200680 263024 
200673 263002 
200663 263057 
200679 263020 
200691 263107 
200717 263073 
200731 263133 
200724 263098 
200725 263165 
200738 263139 
200742 263219 
200757 263183 
200755 263234 
200780 263224 
200755 263288 
200781 263265 
200781 263349 
200785 263309 
200800 263365 
200802 263342 
200802 263390 
200810 263388 
200809 263455 
200833 263405 
200824 263460 
200837 263439 
200864 263494 
200871 263446 
200869 263528 
200855 263472 
200877 263475 
200857 263381 
200810 263347 
200756 263172 
200689 263097 
200669 262932 
200623 262895 
200608 262774 
200564 262731 
200539 262665 
200538 262696 
200534 262653 
200525 262631 
200500 262611 
200519 262607 
200502 262549 
200487 262633 
200500 262567 
200483 262533 
200470 262523 
200474 262521 
200489 262524 
200482 262561 
200485 262551 
200475 262583 
200449 262561 
200510 262598 
200490 262597 
200503 262586 
200501 262591 
200505 262609 
200508 262594 
200500 262577 
200505 262627 
200508 262603 
200495 262639 
200505 262638 
200506 262621 
200514 262590 
200534 262651 
200527 262664 
200514 262693 
200556 262704 
200538 262751 
200548 262716 
200556 262779 
200583 262755 
200582 262838 
200585 262846 
200591 262892 
200607 262856 
200609 262890 
200620 262881 
200643 262979 
200663 262930 
200654 262997 
200657 263004 
200635 263032 
200685 263044 
200680 263083 
200692 263062 
200709 263111 
200699 263071 
200681 263173 
200699 263107 
200730 263207 
200744 263161 
200729 263242 
200757 263197 
200757 263275 
200767 263221 
200755 263270 
200764 263258 
200772 263295 
200761 263277 
200783 263344 
200778 263346 
200786 263388 
200803 263366 
200787 263455 
200829 263421 
200830 263441 
200827 263423 
200862 263524 
200840 263465 
200852 263504 
200842 263422 
200805 263388 
200778 263206 
200742 263201 
200678 263035 
200634 262992 
200612 262867 
200579 262858 
200559 262787 
200553 262798 
200532 262726 
200551 262768 
200533 262703 
200533 262719 
200535 262629 
200516 262747 
200510 262625 
200524 262685 
200532 262643 
200495 262681 
200509 262594 
200501 262712 
200513 262672 
200525 262694 
200538 262692 
200539 262752 
200547 262794 
200541 262752 
200559 262713 
200551 262739 
200548 262731 
200514 262766 
200556 262706 
200547 262783 
200536 262724 
200552 262779 
200561 262774 
200571 262805 
200567 262814 
200565 262837 
200570 262816 
200590 262856 
200571 262858 
200617 262925 
200617 262895 
200604 262979 
200632 262964 
200638 263002 
200638 262952 
200645 263056 
200654 263003 
200682 263072 
200671 263053 
200703 263114 
200699 263080 
200702 263195 
200699 263132 
200715 263210 
200721 263199 
200746 263224 
200735 263239 
200746 263273 
200761 263294 
200769 263308 
200770 263315 
200789 263369 
200787 263334 
200788 263351 
200776 263343 
200795 263404 
200817 263393 
200815 263417 
200817 263431 
200812 263468 
200808 263486 
200828 263517 
200860 263494 
200838 263546 
200855 263542 
200837 263541 
200850 263554 
200867 263535 
200835 263431 
200807 263395 
200763 263294 
200710 263182 
200690 263070 
200634 262978 
200605 262921 
200588 262874 
200536 262820 
200577 262743 
200525 262732 
200533 262731 
200531 262687 
200515 262695 
200492 262700 
200505 262666 
200502 262647 
200481 262646 
200507 262599 
200494 262589 
200482 262576 
200455 262623 
200490 262633 
200492 262649 
200481 262649 
200501 262658 
200507 262654 
200513 262683 
200498 262687 
200504 262677 
200508 262690 
200505 262703 
200491 262704 
200512 262670 
200519 262680 
200499 262731 
200516 262701 
200537 262720 
200547 262750 
200537 262744 
200525 262775 
200546 262788 
200550 262804 
200600 262843 
200567 262856 
200603 262878 
200580 262884 
200607 262925 
200622 262939 
200617 262991 
200605 262992 
200630 263012 
200635 263036 
200656 263030 
200656 263082 
200669 263057 
200666 263111 
200711 263188 
200697 263142 
200704 263185 
200714 263174 
200717 263198 
200730 263214 
200721 263262 
200746 263308 
200753 263299 
200770 263332 
200762 263295 
200752 263344 
200757 263362 
200783 263382 
200776 263388 
200779 263407 
200786 263432 
200783 263419 
200792 263431 
200848 263455 
200806 263490 
200835 263481 
200850 263544 
200821 263511 
200831 263492 
200809 263433 
200754 263324 
200754 263225 
200692 263097 
200644 262999 
200597 262900 
200589 262838 
200565 262764 
200536 262774 
200540 262702 
200527 262719 
200499 262680 
200515 262642 
200497 262653 
200492 262661 
200480 262602 
200481 262595 
200472 262634 
200468 262597 
200444 262535 
200461 262550 
200482 262583 
200478 262604 
200496 262632 
200506 262665 
200498 262631 
200503 262662 
200483 262690 
200502 262680 
200504 262671 
200506 262656 
200510 262668 
200507 262664 
200489 262649 
200504 262661 
200516 262696 
200496 262720 
200502 262706 
200529 262707 
200514 262701 
200511 262748 
200543 262736 
200556 262773 
200537 262806 
200550 262862 
200582 262867 
200584 262852 
200590 262915 
200601 262938 
200593 262933 
200600 262943 
200646 262985 
200634 263022 
200654 262982 
200656 263042 
200643 263059 
200667 263071 
200664 263112 
200679 263112 
200689 263113 
200723 263167 
200713 263163 
200702 263169 
200711 263192 
200722 263206 
200727 263258 
200736 263242 
200730 263296 
200751 263284 
200746 263283 
200783 263315 
200755 263324 
200753 263360 
200775 263404 
200805 263415 
200779 263409 
200808 263413 
200783 263405 
200828 263412 
200823 263410 
200801 263362 
200774 263332 
200728 263227 
200698 263118 
200663 263029 
200619 262922 
200588 262888 
200546 262776 
200544 262737 
200514 262720 
200520 262703 
200509 262690 
200521 262680 
200482 262700 
200513 262647 
200482 262645 
200487 262594 
200482 262603 
200497 262611 
200458 262601 
200486 262611 
200464 262638 
200472 262627 
200501 262671 
200507 262658 
200491 262719 
200492 262680 
200522 262710 
200504 262694 
200510 262687 
200514 262710 
200525 262705 
200502 262709 
200498 262689 
200481 262692 
200516 262710 
200511 262722 
200506 262722 
200531 262766 
200548 262782 
200524 262790 
200551 262798 
200537 262798 
200561 262853 
200581 262826 
200580 262893 
200606 262879 
200596 262912 
200621 262940 
200642 262943 
200607 263000 
200630 262990 
200640 263031 
200666 263049 
200636 263068 
200681 263117 
200678 263130 
200668 263115 
200689 263159 
200689 263136 
200721 263191 
200708 263177 
200736 263187 
200706 263229 
200749 263294 
200745 263266 
200763 263275 
200758 263337 
200777 263317 
200756 263329 
200772 263380 
200770 263409 
200796 263410 
200783 263423 
200801 263429 
200776 263432 
200799 263452 
200784 263463 
200808 263465 
200785 263400 
200766 263306 
200734 263233 
200717 263162 
200634 263029 
200600 262934 
200568 262867 
200572 262815 
200518 262763 
200504 262730 
200485 262704 
200486 262691 
200485 262639 
200483 262635 
200490 262618 
200495 262635 
200463 262574 
200468 262584 
200445 262570 
200453 262546 
200447 262542 
200442 262556 
200423 262570 
200476 262617 
200453 262631 
200506 262661 
200450 262672 
200504 262658 
200465 262624 
200484 262635 
200487 262673 
200519 262631 
200492 262652 
200484 262672 
200489 262676 
200524 262642 
200494 262671 
200488 262693 
200499 262684 
200510 262730 
200512 262762 
200541 262785 
200510 262773 
200562 262814 
200548 262845 
200573 262870 
200565 262893 
200591 262848 
200573 262911 
200607 262944 
200609 262951 
200625 262958 
200610 263020 
200626 263040 
200640 263052 
200649 263084 
200654 263103 
200674 263105 
200675 263130 
200675 263157 
200684 263148 
200701 263207 
200707 263207 
200707 263233 
200719 263264 
200727 263263 
200717 263281 
200735 263296 
200734 263326 
200756 263314 
200738 263347 
200771 263387 
200754 263333 
200781 263421 
200771 263428 
200784 263425 
200785 263473 
200812 263480 
200794 263507 
200824 263533 
200828 263517 
200810 263550 
200811 263561 
200841 263603 
200855 263617 
200843 263587 
200840 263600 
200830 263580 
200831 263486 
200780 263455 
200758 263321 
200714 263194 
200666 263118 
200625 262982 
200606 262934 
200567 262882 
200547 262818 
200515 262788 
200518 262762 
200515 262750 
200512 262700 
200481 262698 
200483 262669 
200492 262713 
200491 262625 
200444 262602 
200465 262576 
200438 262608 
200469 262607 
200476 262593 
200464 262633 
200470 262607 
200483 262674 
200461 262681 
200475 262684 
200502 262692 
200517 262689 
200488 262682 
200521 262726 
200460 262718 
200504 262713 
200476 262687 
200503 262734 
200476 262721 
200516 262722 
200491 262721 
200525 262754 
200490 262754 
200516 262792 
200540 262839 
200560 262837 
200540 262833 
200569 262869 
200550 262865 
200581 262923 
200586 262947 
200617 262934 
200610 262990 
200606 263016 
200631 263034 
200652 263071 
200624 263071 
200644 263056 
200618 263132 
200669 263131 
200637 263145 
200701 263168 
200706 263218 
200696 263167 
200708 263256 
200745 263261 
200722 263264 
200706 263251 
200700 263330 
200730 263330 
200732 263356 
200751 263393 
200755 263372 
200747 263389 
200733 263415 
200779 263425 
200754 263442 
200769 263444 
200769 263484 
200785 263481 
200772 263529 
200815 263529 
200803 263541 
200809 263554 
200796 263568 
200833 263616 
200807 263618 
200863 263624 
200845 263638 
200863 263629 
200827 263622 
200865 263576 
200817 263499 
200789 263411 
200734 263315 
200710 263167 
200660 263132 
200611 263016 
200583 263008 
200568 262950 
200551 262886 
200565 262856 
200559 262843 
200556 262858 
200548 262840 
200542 262813 
200505 262808 
200529 262822 
200514 262767 
200518 262749 
200502 262749 
200502 262792 
200501 262794 
200542 262782 
200502 262832 
200527 262822 
200540 262865 
200542 262874 
200533 262823 
200575 262838 
200534 262849 
200549 262869 
200548 262885 
200572 262849 
200560 262888 
200566 262857 
200535 262873 
200554 262899 
200541 262901 
200577 262913 
200553 262959 
200584 262966 
200569 262974 
200593 262992 
200579 263025 
200626 263007 
200628 263013 
200642 263065 
200617 263061 
200642 263091 
200638 263153 
200664 263144 
200679 263180 
200675 263157 
200671 263251 
200674 263218 
200692 263232 
200681 263247 
200711 263324 
200714 263316 
200716 263302 
200748 263311 
200739 263379 
200767 263381 
200726 263388 
200772 263410 
200749 263419 
200774 263417 
200768 263435 
200781 263455 
200757 263467 
200776 263481 
200758 263512 
200792 263507 
200806 263535 
200816 263546 
200817 263576 
200834 263590 
200826 263616 
200821 263660 
200834 263661 
200837 263671 
200835 263673 
200850 263656 
200829 263645 
200836 263545 
200781 263505 
200777 263378 
200719 263331 
200704 263212 
200646 263148 
200635 263074 
200601 263048 
200586 262975 
200571 262973 
200567 262948 
200570 262930 
200561 262930 
200566 262874 
200539 262896 
200541 262850 
200556 262861 
200548 262862 
200550 262865 
200531 262852 
200531 262877 
200538 262860 
200552 262862 
200560 262872 
200555 262911 
200585 262961 
200562 262924 
200561 262937 
200561 262945 
200576 262939 
200585 262924 
200584 262965 
200572 262948 
200574 262961 
200564 262957 
200579 262947 
200585 262961 
200586 263030 
200597 263029 
200613 262987 
200600 263038 
200625 263036 
200608 263094 
200640 263105 
200639 263161 
200653 263143 
200645 263145 
200654 263166 
200670 263226 
200683 263196 
200702 263227 
200706 263263 
200687 263301 
200709 263280 
200695 263365 
200728 263344 
200730 263385 
200733 263395 
200725 263404 
200762 263433 
200737 263448 
200765 263443 
200763 263478 
200779 263453 
200769 263520 
200799 263502 
200782 263551 
200820 263555 
200799 263545 
200819 263571 
200816 263594 
200819 263627 
200835 263663 
200844 263647 
200843 263635 
200856 263669 
200857 263710 
200856 263698 
200860 263733 
200853 263725 
200882 263788 
200883 263790 
200869 263784 
200876 263744 
200878 263812 
200878 263713 
200843 263704 
200808 263570 
200789 263524 
200750 263396 
200706 263318 
200672 263201 
200652 263167 
200644 263087 
200612 263111 
200611 262988 
200600 262990 
200569 262953 
200575 262983 
200567 262898 
200573 262944 
200531 262921 
200561 262877 
200529 262867 
200530 262859 
200541 262827 
200536 262816 
200532 262833 
200557 262886 
200543 262866 
200577 262944 
200558 262925 
200566 262943 
200550 262935 
200569 262950 
200551 262913 
200579 262976 
200564 262939 
200597 262947 
200594 262970 
200567 262962 
200557 262951 
200599 263017 
200570 262954 
200594 263039 
200588 262981 
200603 263014 
200603 263067 
200628 263077 
200643 263080 
200648 263148 
200634 263126 
200672 263141 
200659 263183 
200679 263197 
200665 263208 
200693 263239 
200670 263292 
200718 263241 
200681 263297 
200740 263339 
200734 263323 
200730 263383 
200732 263358 
200721 263416 
200728 263408 
200756 263445 
200759 263463 
200775 263469 
200787 263490 
200784 263519 
200769 263535 
200792 263543 
200776 263509 
200797 263561 
200790 263572 
200806 263594 
200791 263579 
200841 263619 
200847 263627 
200818 263662 
200828 263645 
200861 263687 
200846 263723 
200842 263738 
200832 263715 
200853 263788 
200877 263745 
200873 263762 
200881 263797 
200899 263829 
200878 263781 
200865 263740 
200859 263693 
200834 263593 
200772 263465 
200770 263392 
200716 263288 
200691 263211 
200651 263151 
200628 263136 
200609 263072 
200614 263053 
200601 263012 
200589 263052 
200582 262992 
200583 262993 
200575 262956 
200593 262949 
200572 262956 
200555 262964 
200570 262906 
200570 262915 
200561 262903 
200559 262945 
200579 262959 
200599 262963 
200585 262983 
200577 263008 
200607 262965 
200589 262996 
200583 263002 
200572 262999 
200575 262986 
200586 262997 
200588 263001 
200596 263027 
200576 262986 
200605 263046 
200581 263056 
200595 263060 
200612 263050 
200614 263081 
200633 263104 
200634 263098 
200652 263133 
200660 263155 
200652 263166 
200653 263198 
200666 263203 
200667 263224 
200683 263263 
200691 263258 
200701 263301 
200691 263283 
200707 263313 
200717 263341 
200722 263363 
200735 263379 
200750 263390 
200734 263433 
200760 263454 
200752 263435 
200792 263479 
200766 263440 
200782 263466 
200795 263505 
200793 263493 
200788 263506 
200794 263549 
200782 263587 
200801 263578 
200816 263621 
200811 263601 
200801 263608 
200822 263611 
200825 263655 
200832 263650 
200809 263668 
200849 263694 
200829 263715 
200836 263732 
200819 263723 
200880 263727 
200849 263802 
200897 263777 
200855 263770 
200911 263804 
200862 263780 
200885 263722 
200855 263657 
200842 263578 
200791 263493 
200772 263419 
200686 263295 
200680 263221 
200661 263206 
200651 263136 
200600 263103 
200639 263091 
200604 263067 
200602 263038 
200590 263061 
200593 263028 
200602 263026 
200600 262958 
200587 263001 
200578 262980 
200556 262987 
200594 262975 
200564 263015 
200596 263009 
200576 263029 
200578 263029 
200601 263047 
200603 263042 
200595 263080 
200611 263061 
200578 263044 
200611 263033 
200570 263045 
200608 263033 
200592 263057 
200628 263013 
200597 263072 
200609 263057 
200602 263068 
200617 263059 
200634 263117 
200646 263125 
200612 263121 
200651 263136 
200633 263198 
200637 263190 
200664 263254 
200665 263218 
200681 263251 
200661 263271 
200687 263274 
200701 263301 
200711 263320 
200725 263333 
200715 263350 
200725 263351 
200748 263382 
200730 263416 
200731 263448 
200764 263409 
200772 263477 
200768 263481 
200780 263519 
200776 263509 
200776 263527 
200792 263519 
200815 263566 
200800 263550 
200802 263616 
200818 263604 
200800 263613 
200823 263647 
200799 263656 
200822 263665 
200849 263679 
200824 263696 
200837 263716 
200838 263703 
200831 263720 
200848 263743 
200852 263808 
200836 263770 
200868 263816 
200887 263790 
200916 263871 
200859 263830 
200888 263814 
200859 263754 
200860 263715 
200810 263587 
200784 263512 
200725 263384 
200724 263308 
200682 263241 
200664 263181 
200622 263114 
200633 263139 
200596 263099 
200606 263027 
200586 262996 
200588 263011 
200568 262970 
200581 262941 
200545 262947 
200572 262938 
200508 262902 
200543 262909 
200523 262923 
200547 262930 
200532 262907 
200562 262906 
200532 262929 
200556 262924 
200537 262953 
200575 262968 
200559 262962 
200566 262978 
200549 262959 
200563 262944 
200527 262961 
200557 262937 
200544 262920 
200563 262974 
200538 262974 
200584 262988 
200546 263013 
200584 263017 
200570 263011 
200602 263051 
200561 263081 
200603 263079 
200598 263084 
200640 263099 
200641 263148 
200664 263111 
200635 263175 
200693 263204 
200659 263173 
200661 263188 
200656 263262 
200678 263263 
200659 263285 
200686 263334 
200711 263323 
200711 263328 
200695 263368 
200737 263346 
200714 263404 
200753 263397 
200725 263455 
200719 263445 
200750 263478 
200738 263516 
200740 263498 
200765 263469 
200765 263533 
200765 263545 
200761 263540 
200793 263618 
200775 263577 
200822 263583 
200792 263643 
200817 263643 
200796 263601 
200830 263677 
200807 263645 
200809 263680 
200828 263722 
200848 263728 
200831 263732 
200835 263740 
200834 263742 
200833 263739 
200826 263638 
200794 263564 
200752 263480 
200720 263422 
200674 263316 
200671 263157 
200604 263138 
200591 263055 
200573 263032 
200563 262984 
200544 262971 
200543 262936 
200524 262954 
200526 262868 
200521 262906 
200523 262882 
200492 262850 
200500 262814 
200475 262840 
200487 262797 
200483 262832 
200504 262834 
200504 262848 
200510 262843 
200480 262882 
200516 262862 
200525 262905 
200510 262884 
200528 262887 
200517 262888 
200540 262887 
200516 262879 
200505 262904 
200519 262860 
200520 262903 
200529 262888 
200514 262913 
200529 262906 
200507 262946 
200542 262944 
200557 262938 
200543 262939 
200562 263015 
200564 262993 
200561 263041 
200582 263014 
200598 263087 
200598 263079 
200606 263109 
200597 263089 
200612 263160 
200624 263148 
200652 263137 
200644 263189 
200643 263201 
200628 263216 
200660 263244 
200675 263277 
200660 263296 
200683 263303 
200677 263294 
200683 263335 
200681 263374 
200690 263367 
200713 263390 
200713 263373 
200717 263396 
200713 263409 
200706 263425 
200732 263470 
200731 263473 
200737 263473 
200738 263506 
200754 263477 
200792 263540 
200765 263518 
200773 263571 
200773 263576 
200774 263583 
200756 263599 
200807 263627 
200794 263628 
200804 263648 
200795 263632 
200789 263601 
200777 263565 
200765 263494 
200726 263387 
200686 263266 
200644 263188 
200613 263110 
200567 263055 
200574 262978 
200535 262991 
200540 262928 
200513 262932 
200529 262876 
200490 262895 
200522 262869 
200497 262870 
200516 262852 
200494 262828 
200496 262797 
200468 262792 
200502 262795 
200470 262835 
200509 262840 
200503 262886 
200517 262875 
200505 262884 
200529 262878 
200502 262912 
200513 262863 
200520 262874 
200514 262848 
200511 262870 
200531 262851 
200492 262863 
200508 262853 
200482 262879 
200537 262892 
200485 262869 
200528 262883 
200526 262928 
200517 262933 
200500 262945 
200527 262966 
200532 262964 
200571 262989 
200530 262998 
200583 263056 
200571 263069 
200598 263043 
200585 263084 
200604 263117 
200595 263124 
200628 263153 
200614 263172 
200632 263182 
200611 263211 
200654 263244 
200637 263244 
200686 263254 
200647 263257 
200694 263272 
200651 263311 
200694 263296 
200677 263357 
200694 263311 
200665 263388 
200712 263385 
200705 263425 
200717 263419 
200701 263455 
200729 263421 
200725 263459 
200737 263458 
200726 263515 
200736 263484 
200747 263530 
200770 263540 
200756 263566 
200758 263554 
200756 263621 
200805 263592 
200773 263648 
200806 263660 
200782 263627 
200817 263632 
200790 263679 
200814 263645 
200764 263605 
200803 263510 
200735 263464 
200719 263350 
200648 263277 
200621 263135 
200601 263062 
200568 262998 
200505 262965 
200524 262906 
200510 262876 
200500 262871 
200455 262848 
200499 262820 
200489 262800 
200479 262762 
200447 262769 
200472 262761 
200443 262751 
200441 262733 
200427 262757 
200416 262727 
200455 262739 
200467 262743 
200466 262800 
200462 262773 
200476 262807 
200472 262793 
200487 262787 
200450 262764 
200466 262812 
200479 262751 
200456 262809 
200467 262784 
200478 262804 
200488 262747 
200479 262798 
200478 262838 
200468 262843 
200472 262856 
200501 262865 
200507 262847 
200503 262905 
200499 262926 
200521 262919 
200518 262969 
200538 262966 
200545 262955 
200540 263005 
200554 263032 
200568 263044 
200551 263053 
200593 263061 
200568 263091 
200587 263126 
200591 263126 
200595 263167 
200594 263164 
200649 263174 
200608 263212 
200640 263243 
200625 263254 
200654 263284 
200652 263277 
200661 263274 
200638 263323 
200672 263376 
200658 263333 
200701 263325 
200654 263347 
200684 263375 
200682 263397 
200706 263430 
200717 263456 
200721 263510 
200727 263471 
200748 263506 
200725 263529 
200748 263487 
200736 263508 
200766 263524 
200758 263552 
200771 263576 
200761 263593 
200800 263628 
200780 263612 
200771 263622 
200784 263600 
200793 263662 
200777 263562 
200768 263534 
200708 263439 
200692 263376 
200646 263239 
200614 263099 
200563 263052 
200532 262989 
200480 262922 
200506 262873 
200466 262851 
200472 262815 
200431 262769 
200455 262737 
200404 262737 
200439 262721 
200443 262732 
200430 262699 
200413 262669 
200386 262631 
200408 262623 
200419 262656 
200404 262646 
200409 262695 
200408 262685 
200447 262720 
200429 262700 
200443 262736 
200433 262693 
200441 262738 
200408 262706 
200409 262708 
200426 262708 
200443 262732 
200413 262703 
200459 262721 
200429 262716 
200466 262737 
200429 262765 
200434 262794 
200447 262786 
200466 262793 
200474 262836 
200475 262821 
200486 262838 
200515 262855 
200492 262891 
200539 262920 
200499 262926 
200500 262955 
200512 262970 
200529 262994 
200552 263047 
200547 263020 
200552 263052 
200573 263080 
200560 263119 
200572 263116 
200580 263124 
200596 263139 
200620 263183 
200614 263157 
200633 263205 
200642 263267 
200633 263236 
200636 263250 
200628 263298 
200666 263303 
200649 263308 
200667 263337 
200672 263328 
200672 263315 
200677 263349 
200700 263385 
200668 263415 
200688 263375 
200686 263454 
200704 263426 
200713 263468 
200713 263482 
200732 263487 
200727 263517 
200712 263561 
200747 263537 
200731 263560 
200734 263572 
200754 263599 
200752 263593 
200778 263598 
200739 263556 
200725 263522 
200704 263414 
200690 263348 
200629 263224 
200601 263129 
200576 263017 
200544 262977 
200497 262926 
200490 262884 
200491 262859 
200473 262857 
200481 262840 
200443 262839 
200454 262819 
200462 262802 
200459 262748 
200434 262791 
200438 262756 
200441 262778 
200431 262737 
200443 262775 
200429 262769 
200453 262772 
200452 262797 
200454 262823 
200455 262796 
200471 262846 
200449 262808 
200497 262846 
200439 262796 
200433 262852 
200448 262771 
200469 262826 
200454 262847 
200441 262864 
200463 262827 
200475 262857 
200494 262871 
200460 262875 
200473 262862 
200493 262904 
200485 262885 
200493 262951 
200508 262934 
200517 263013 
200522 262985 
200538 263035 
200546 263005 
200543 263070 
200556 263070 
200584 263092 
200576 263105 
200593 263150 
200591 263140 
200593 263169 
200588 263171 
200603 263207 
200638 263239 
200616 263248 
200628 263248 
200628 263272 
200627 263274 
200625 263326 
200645 263340 
200665 263350 
200656 263319 
200656 263352 
200674 263378 
200669 263430 
200702 263392 
200686 263425 
200682 263429 
200682 263467 
200682 263478 
200676 263492 
200720 263504 
200708 263523 
200735 263533 
200725 263535 
200736 263550 
200767 263579 
200738 263604 
200750 263633 
200746 263626 
200747 263613 
200734 263534 
200707 263499 
200695 263403 
200673 263298 
200619 263195 
200583 263104 
200566 263068 
200520 262988 
200467 262934 
200497 262915 
200496 262882 
200454 262837 
200474 262825 
200426 262824 
200471 262811 
200451 262833 
200448 262799 
200439 262739 
200422 262734 
200417 262744 
200425 262733 
200420 262767 
200442 262772 
200445 262782 
200438 262802 
200467 262825 
200448 262853 
200451 262866 
200478 262845 
200449 262821 
200470 262835 
200464 262825 
200464 262832 
200455 262848 
200469 262882 
200474 262855 
200468 262878 
200468 262861 
200459 262863 
200478 262907 
200475 262868 
200492 262959 
200510 262979 
200515 262985 
200528 262989 
200508 263006 
200532 263015 
200548 263052 
200530 263069 
200558 263101 
200579 263123 
200564 263131 
200567 263141 
200597 263170 
200598 263174 
200585 263147 
200613 263253 
200618 263255 
200624 263316 
200647 263283 
200650 263307 
200674 263318 
200648 263364 
200650 263365 
200649 263379 
200684 263362 
200674 263404 
200675 263425 
200685 263454 
200705 263449 
200688 263474 
200696 263459 
200706 263519 
200695 263498 
200705 263502 
200730 263545 
200725 263537 
200742 263580 
200737 263584 
200738 263599 
200731 263616 
200721 263574 
200724 263537 
200726 263427 
200674 263359 
200653 263254 
200590 263154 
200542 263064 
200529 262981 
200514 262933 
200499 262886 
200474 262848 
200445 262867 
200437 262801 
200437 262821 
200430 262780 
200422 262777 
200399 262730 
200412 262764 
200395 262709 
200399 262748 
200405 262669 
200402 262693 
200399 262684 
200417 262723 
200393 262713 
200416 262781 
200408 262751 
200416 262749 
200443 262767 
200416 262770 
200417 262786 
200445 262787 
200455 262756 
200452 262788 
200424 262781 
200430 262834 
200461 262782 
200439 262798 
200445 262775 
200454 262858 
200454 262840 
200453 262831 
200489 262864 
200499 262911 
200484 262915 
200486 262946 
200504 262942 
200523 262980 
200525 263017 
200514 263046 
200535 263041 
200525 263081 
200532 263080 
200543 263107 
200577 263117 
200569 263123 
200592 263208 
200602 263230 
200588 263218 
200608 263258 
200606 263256 
200634 263281 
200612 263294 
200621 263314 
200633 263293 
200644 263357 
200643 263340 
200637 263365 
200646 263367 
200662 263411 
200664 263405 
200691 263444 
200673 263473 
200688 263497 
200706 263449 
200702 263503 
200701 263505 
200694 263539 
200706 263511 
200716 263579 
200717 263527 
200748 263615 
200703 263530 
200718 263505 
200686 263423 
200665 263366 
200597 263244 
200551 263136 
200534 263041 
200503 263008 
200483 262936 
200482 262883 
200454 262890 
200455 262857 
200436 262801 
200450 262834 
200395 262792 
200418 262797 
200405 262747 
200409 262709 
200389 262729 
200399 262739 
200381 262720 
200424 262711 
200384 262746 
200428 262769 
200387 262752 
200429 262774 
200411 262755 
200444 262784 
200420 262797 
200450 262783 
200418 262788 
200428 262775 
200407 262811 
200430 262794 
200392 262788 
200439 262805 
200423 262783 
200447 262804 
200425 262818 
200440 262833 
200432 262848 
200452 262823 
200471 262882 
200479 262900 
200446 262894 
200521 262954 
200475 262938 
200488 262980 
200497 263013 
200528 263015 
200500 263036 
200539 263044 
200524 263064 
200570 263112 
200547 263086 
200573 263136 
200566 263151 
200583 263156 
200552 263160 
200612 263235 
200579 263280 
200615 263238 
200609 263238 
200632 263238 
200612 263284 
200637 263269 
200595 263318 
200649 263336 
200628 263361 
200666 263381 
200627 263385 
200674 263424 
200638 263428 
200680 263441 
200643 263434 
200722 263464 
200660 263453 
200720 263476 
200681 263466 
200678 263411 
200637 263374 
200657 263278 
200571 263161 
200541 263050 
200483 263009 
200468 262890 
200423 262863 
200460 262840 
200385 262806 
200430 262781 
200393 262760 
200417 262750 
200382 262748 
200420 262738 
200386 262721 
200404 262698 
200357 262685 
200383 262664 
200332 262710 
200396 262676 
200383 262702 
200416 262695 
200386 262692 
200439 262722 
200408 262792 
200413 262764 
200398 262776 
200410 262788 
200383 262774 
200411 262772 
200385 262764 
200425 262736 
200391 262784 
200418 262802 
200403 262787 
200426 262746 
200394 262844 
200453 262847 
200416 262836 
200439 262822 
200436 262907 
200464 262885 
200465 262925 
200499 262886 
200482 262935 
200495 262956 
200474 262960 
200526 262961 
200499 263014 
200536 263085 
200508 263046 
200549 263067 
200530 263124 
200535 263127 
200547 263174 
200558 263157 
200560 263171 
200590 263217 
200580 263234 
200596 263229 
200592 263246 
200604 263258 
200590 263266 
200625 263245 
200641 263342 
200632 263339 
200636 263346 
200655 263334 
200630 263419 
200665 263385 
200639 263407 
200667 263438 
200669 263441 
200694 263469 
200666 263397 
200657 263423 
200626 263308 
200617 263229 
200560 263150 
200545 263026 
200486 262968 
200472 262848 
200440 262841 
200431 262796 
200387 262768 
200359 262697 
200388 262662 
200380 262656 
200391 262639 
200359 262667 
200340 262675 
200328 262602 
200311 262600 
200312 262618 
200334 262576 
200329 262603 
200328 262591 
200350 262595 
200346 262647 
200347 262677 
200366 262659 
200364 262650 
200409 262678 
200384 262665 
200357 262686 
200375 262690 
200347 262659 
200363 262674 
200387 262673 
200368 262660 
200389 262683 
200362 262726 
200388 262709 
200366 262720 
200381 262767 
200390 262766 
200409 262775 
200399 262763 
200397 262806 
200426 262833 
200426 262849 
200442 262880 
200425 262867 
200450 262905 
200473 262958 
200453 262954 
200498 262968 
200475 262993 
200482 263023 
200483 263025 
200531 263057 
200523 263089 
200540 263113 
200524 263124 
200547 263154 
200549 263157 
200572 263196 
200553 263199 
200586 263244 
200587 263271 
200574 263259 
200567 263250 
200584 263293 
200580 263273 
200611 263284 
200593 263306 
200620 263347 
200610 263366 
200627 263377 
200630 263400 
200659 263431 
200615 263386 
200620 263367 
200604 263318 
200600 263216 
200532 263105 
200513 263003 
200444 262911 
200430 262788 
200392 262769 
200366 262711 
200347 262691 
200376 262679 
200342 262637 
200378 262607 
200340 262596 
200333 262589 
200301 262568 
200318 262557 
200308 262533 
200305 262524 
200300 262535 
200330 262539 
200270 262546 
200293 262535 
200301 262595 
200326 262589 
200288 262586 
200340 262598 
200279 262607 
200345 262577 
200324 262602 
200348 262624 
200327 262582 
200358 262593 
200331 262644 
200323 262625 
200342 262584 
200341 262579 
200330 262645 
200341 262623 
200323 262659 
200348 262678 
200341 262701 
200383 262684 
200367 262754 
200385 262762 
200380 262797 
200416 262786 
200376 262793 
200444 262814 
200403 262857 
200430 262853 
200427 262943 
200454 262913 
200446 262916 
200487 262952 
200459 262985 
200496 263025 
200463 263045 
200491 263083 
200479 263080 
200536 263074 
200517 263110 
200551 263137 
200519 263166 
200550 263152 
200556 263203 
200548 263180 
200544 263203 
200575 263220 
200558 263213 
200571 263272 
200549 263277 
200595 263273 
200582 263327 
200622 263284 
200608 263353 
200635 263311 
200589 263361 
200632 263377 
200616 263415 
200652 263404 
200615 263451 
200649 263364 
200626 263380 
200624 263289 
200555 263227 
200543 263064 
200485 262972 
200462 262894 
200400 262853 
200405 262738 
200371 262709 
200355 262677 
200336 262679 
200342 262621 
200311 262649 
200341 262617 
200322 262623 
200340 262619 
200310 262597 
200337 262595 
200289 262553 
200299 262564 
200317 262587 
200348 262600 
200305 262645 
200343 262595 
200290 262663 
200355 262608 
200308 262648 
200334 262607 
200327 262601 
200324 262618 
200316 262659 
200332 262587 
200324 262644 
200332 262625 
200326 262645 
